1740493974515,0.004261058,0.0,0.007456851
1740493974527,-0.07669904,0.01917476,0.099069595
1740493974527,-0.1107875,-0.049002163,0.07137272
1740493974530,-0.12676647,-0.053263225,0.036218993
1740493974535,-0.14061491,-0.035153728,0.0010652645
1740493974540,-0.15446335,-0.0053263223,-0.03089267
1740493974545,-0.16937704,0.03089267,-0.05752428
1740493974550,-0.18429075,0.06498113,-0.07350325
1740493974555,-0.19707392,0.099069595,-0.08735169
1740493974560,-0.20772657,0.1257012,-0.0958738
1740493974565,-0.21518342,0.14274544,-0.099069595
1740493974570,-0.21624869,0.14807177,-0.099069595
1740493974575,-0.2130529,0.14274544,-0.09267801
1740493974579,-0.20772657,0.13422333,-0.083090626
1740493974584,-0.20026971,0.12463594,-0.06924219
1740493974590,-0.1917476,0.11504856,-0.051132694
1740493974595,-0.18216023,0.10439592,-0.029827405
1740493974599,-0.16831179,0.09374327,-0.00958738
1740493974604,-0.15446335,0.080960095,0.011717909
1740493974609,-0.14168017,0.068176925,0.026631612
1740493974617,-0.128897,0.05752428,0.040480047
1740493974619,-0.11930962,0.0479369,0.05539375
1740493974624,-0.112918034,0.041545313,0.06391586
1740493974629,-0.10972224,0.04580637,0.06924219
1740493974634,-0.10652645,0.06178534,0.07350325
1740493974639,-0.10652645,0.07989483,0.0777643
1740493974644,-0.10652645,0.0958738,0.08628642
1740493974649,-0.10759171,0.10972224,0.099069595
1740493974655,-0.10759171,0.11717909,0.11611383
1740493974659,-0.10972224,0.12037488,0.128897
1740493974664,-0.10972224,0.11717909,0.14168017
1740493974669,-0.10972224,0.1107875,0.15126756
1740493974674,-0.10972224,0.101200126,0.16298546
1740493974678,-0.10865697,0.08948222,0.1736381
1740493974684,-0.10865697,0.07563378,0.17896444
1740493974689,-0.1107875,0.05752428,0.18216023
1740493974695,-0.10759171,0.04261058,0.18216023
1740493974699,-0.10972224,0.034088463,0.1768339
1740493974713,-0.10972224,0.034088463,0.1768339
1740493974713,-0.112918034,0.026631612,0.17150758
1740493974716,-0.11717909,0.022370555,0.16724652
1740493974719,-0.11717909,0.020240024,0.16405073
1740493974723,-0.11824436,0.013848438,0.16192019
1740493974728,-0.11824436,0.0031957934,0.15765914
1740493974733,-0.12144015,-0.008522116,0.15020229
1740493974738,-0.1257012,-0.0127831735,0.14274544
1740493974743,-0.12676647,-0.002130529,0.13422333
1740493974749,-0.1257012,0.015978966,0.1257012
1740493974753,-0.12250541,0.043675844,0.113983296
1740493974758,-0.11824436,0.082025364,0.10546118
1740493974763,-0.1107875,0.1257012,0.098004326
1740493974768,-0.10439592,0.17150758,0.09374327
1740493974773,-0.096939065,0.21731395,0.09267801
1740493974778,-0.08841695,0.25885928,0.099069595
1740493974782,-0.07350325,0.28549087,0.10759171
1740493974787,-0.046871636,0.30466563,0.11930962
1740493974792,-0.0127831735,0.3153183,0.128897
1740493974797,0.027696876,0.31957933,0.13848437
1740493974802,0.06178534,0.3153183,0.14487597
1740493974807,0.08841695,0.30253512,0.15446335
1740493974812,0.10226539,0.28442562,0.16937704
1740493974817,0.10652645,0.25992453,0.18855181
1740493974822,0.10652645,0.22796659,0.20559604
1740493974827,0.10652645,0.19068234,0.22264028
1740493974834,0.10652645,0.14807177,0.23116238
1740493974838,0.112918034,0.10439592,0.23329292
1740493974842,0.12144015,0.058589544,0.22583607
1740493974847,0.13102753,0.015978966,0.21518342
1740493974852,0.14061491,-0.02130529,0.20240025
1740493974857,0.14594123,-0.05539375,0.18855181
1740493974862,0.15020229,-0.07669904,0.17150758
1740493974867,0.15233281,-0.08628642,0.15020229
1740493974872,0.15446335,-0.08735169,0.12463594
1740493974876,0.15126756,-0.07563378,0.101200126
1740493974882,0.14594123,-0.05965481,0.07456851
1740493974887,0.13848437,-0.040480047,0.0479369
1740493974891,0.12996227,-0.013848438,0.020240024
1740493974896,0.11930962,0.014913702,-0.008522116
1740493974901,0.10546118,0.04580637,-0.037284255
1740493974906,0.09161274,0.080960095,-0.0628506
1740493974911,0.0777643,0.11717909,-0.08841695
1740493974919,0.06391586,0.15233281,-0.10972224
1740493974922,0.05219796,0.18429075,-0.12783173
1740493974927,0.040480047,0.21624869,-0.14061491
1740493974933,0.03195793,0.24501082,-0.15020229
1740493974938,0.025566347,0.27696875,-0.15659387
1740493974943,0.022370555,0.2972088,-0.16085494
1740493974946,0.018109497,0.3110572,-0.16405073
1740493974953,0.015978966,0.3089267,-0.165116
1740493974956,0.013848438,0.29614353,-0.16405073
1740493974961,0.007456851,0.2759035,-0.16298546
1740493974967,-0.0053263223,0.24927188,-0.16405073
1740493974971,-0.025566347,0.221575,-0.16618125
1740493974976,-0.049002163,0.1917476,-0.16937704
1740493974981,-0.07456851,0.1587244,-0.17257284
1740493974990,-0.099069595,0.1257012,-0.1768339
1740493974990,-0.12144015,0.0958738,-0.18429075
1740493974996,-0.14061491,0.068176925,-0.19281286
1740493975001,-0.15659387,0.0479369,-0.20240025
1740493975005,-0.16831179,0.037284255,-0.21092236
1740493975012,-0.18109496,0.037284255,-0.21624869
1740493975017,-0.19387813,0.0479369,-0.221575
1740493975021,-0.20879184,0.0628506,-0.22583607
1740493975026,-0.2247708,0.08522116,-0.23009712
1740493975031,-0.23542345,0.1107875,-0.23222765
1740493975036,-0.24181503,0.14274544,-0.22903186
1740493975040,-0.23861924,0.17576863,-0.22370553
1740493975045,-0.22690132,0.20559604,-0.21624869
1740493975051,-0.20453078,0.23542345,-0.20453078
1740493975056,-0.17044231,0.26418558,-0.18855181
1740493975060,-0.128897,0.28655612,-0.17044231
1740493975065,-0.08522116,0.30466563,-0.15020229
1740493975070,-0.043675844,0.31318775,-0.12996227
1740493975076,-0.008522116,0.30999196,-0.10972224
1740493975081,0.020240024,0.30040458,-0.09054748
1740493975085,0.04261058,0.28549087,-0.07350325
1740493975091,0.05752428,0.26844665,-0.05752428
1740493975095,0.070307456,0.24820662,-0.04261058
1740493975103,0.07350325,0.22264028,-0.03195793
1740493975104,0.070307456,0.19707392,-0.023435818
1740493975110,0.060720075,0.17896444,-0.017044231
1740493975115,0.04261058,0.16085494,-0.00958738
1740493975120,0.022370555,0.14913702,0.0010652645
1740493975125,-0.0010652645,0.14168017,0.00958738
1740493975130,-0.023435818,0.13741912,0.02130529
1740493975136,-0.04474111,0.13741912,0.033023197
1740493975144,-0.0628506,0.14168017,0.05006743
1740493975146,-0.070307456,0.14487597,0.06711166
1740493975150,-0.07137272,0.14807177,0.082025364
1740493975155,-0.066046394,0.14594123,0.098004326
1740493975160,-0.05752428,0.1438107,0.10972224
1740493975164,-0.04580637,0.13848437,0.12357068
1740493975170,-0.033023197,0.12783173,0.13741912
1740493975174,-0.024501082,0.1107875,0.15020229
1740493975179,-0.017044231,0.083090626,0.1587244
1740493975184,-0.007456851,0.04261058,0.16405073
1740493975191,0.007456851,0.002130529,0.16831179
1740493975194,0.024501082,-0.03834952,0.17150758
1740493975200,0.04474111,-0.0777643,0.16937704
1740493975210,0.06924219,-0.10759171,0.16085494
1740493975210,0.09267801,-0.12996227,0.14913702
1740493975213,0.113983296,-0.1470065,0.13315806
1740493975219,0.13528858,-0.15659387,0.112918034
1740493975225,0.15659387,-0.1587244,0.08735169
1740493975230,0.17470337,-0.1470065,0.058589544
1740493975233,0.18642128,-0.12676647,0.02876214
1740493975238,0.1917476,-0.10013486,-0.002130529
1740493975243,0.18961707,-0.06711166,-0.03089267
1740493975248,0.18109496,-0.03089267,-0.058589544
1740493975253,0.16298546,0.008522116,-0.08628642
1740493975258,0.14061491,0.051132694,-0.112918034
1740493975263,0.112918034,0.08948222,-0.13635385
1740493975269,0.082025364,0.12676647,-0.15659387
1740493975272,0.05539375,0.15659387,-0.17150758
1740493975277,0.026631612,0.18322548,-0.18535602
1740493975282,-0.0010652645,0.20240025,-0.19707392
1740493975288,-0.02130529,0.21411815,-0.2066613
1740493975292,-0.039414786,0.21944448,-0.20985709
1740493975297,-0.051132694,0.21731395,-0.20879184
1740493975302,-0.05539375,0.20879184,-0.20026971
1740493975308,-0.05006743,0.19068234,-0.18961707
1740493975312,-0.03834952,0.17150758,-0.1768339
1740493975317,-0.018109497,0.15233281,-0.16192019
1740493975322,0.0,0.13422333,-0.1470065
1740493975327,0.023435818,0.11824436,-0.128897
1740493975331,0.04261058,0.10226539,-0.1107875
1740493975337,0.05965481,0.08948222,-0.09161274
1740493975341,0.07137272,0.07350325,-0.07243799
1740493975346,0.07882957,0.05965481,-0.054328486
1740493975351,0.084155895,0.05219796,-0.035153728
1740493975357,0.08522116,0.05006743,-0.018109497
1740493975361,0.084155895,0.054328486,-0.0031957934
1740493975367,0.07456851,0.058589544,0.0127831735
1740493975371,0.056459017,0.0628506,0.025566347
1740493975376,0.037284255,0.066046394,0.036218993
1740493975381,0.011717909,0.05965481,0.046871636
1740493975386,-0.015978966,0.053263225,0.056459017
1740493975391,-0.04580637,0.041545313,0.066046394
1740493975396,-0.07669904,0.022370555,0.07563378
1740493975401,-0.10652645,0.0010652645,0.08841695
1740493975406,-0.13209279,-0.025566347,0.101200126
1740493975411,-0.1555286,-0.05752428,0.112918034
1740493975416,-0.17470337,-0.09267801,0.1257012
1740493975421,-0.18642128,-0.12463594,0.13635385
1740493975426,-0.19600865,-0.15765914,0.15020229
1740493975430,-0.20240025,-0.18855181,0.15978967
1740493975436,-0.20453078,-0.21624869,0.16831179
1740493975440,-0.20772657,-0.23435818,0.1736381
1740493975446,-0.21198763,-0.24181503,0.1768339
1740493975451,-0.21624869,-0.24394555,0.18002969
1740493975455,-0.22370553,-0.2428803,0.18216023
1740493975460,-0.23542345,-0.24181503,0.18535602
1740493975465,-0.25033715,-0.23648871,0.18855181
1740493975470,-0.26418558,-0.23435818,0.18855181
1740493975475,-0.27377295,-0.23222765,0.18429075
1740493975480,-0.2790993,-0.22903186,0.17576863
1740493975485,-0.27696875,-0.21837921,0.165116
1740493975490,-0.26844665,-0.2034655,0.1555286
1740493975495,-0.25353295,-0.18748654,0.14807177
1740493975500,-0.24074976,-0.16831179,0.1438107
1740493975506,-0.2247708,-0.1470065,0.14274544
1740493975512,-0.21092236,-0.12357068,0.14487597
1740493975514,-0.19920446,-0.10013486,0.15126756
1740493975519,-0.18642128,-0.07882957,0.1587244
1740493975525,-0.17257284,-0.06178534,0.16831179
1740493975530,-0.1587244,-0.046871636,0.18109496
1740493975535,-0.14168017,-0.03195793,0.19387813
1740493975540,-0.12144015,-0.01917476,0.2066613
1740493975547,-0.099069595,-0.011717909,0.21837921
1740493975551,-0.07563378,-0.0053263223,0.23116238
1740493975555,-0.05219796,-0.0010652645,0.2428803
1740493975565,-0.03089267,0.0010652645,0.2545982
1740493975568,-0.011717909,0.002130529,0.26418558
1740493975569,0.002130529,-0.0010652645,0.27377295
1740493975575,0.013848438,0.0010652645,0.28442562
1740493975579,0.02130529,0.0031957934,0.29294774
1740493975584,0.025566347,0.007456851,0.29827404
1740493975589,0.029827405,0.010652645,0.30146983
1740493975593,0.029827405,0.011717909,0.30253512
1740493975598,0.02876214,0.011717909,0.30466563
1740493975604,0.025566347,0.014913702,0.30679616
1740493975608,0.02130529,0.015978966,0.30360037
1740493975614,0.015978966,0.0127831735,0.29933932
1740493975618,0.010652645,0.0053263223,0.29827404
1740493975624,0.0063915867,-0.0053263223,0.30146983
1740493975628,0.0,-0.015978966,0.30679616
1740493975633,-0.002130529,-0.025566347,0.31318775
1740493975638,-0.004261058,-0.043675844,0.31851408
1740493975643,-0.0063915867,-0.060720075,0.32170987
1740493975648,-0.010652645,-0.0777643,0.32490566
1740493975653,-0.018109497,-0.094808534,0.32490566
1740493975658,-0.02876214,-0.10972224,0.32170987
1740493975665,-0.043675844,-0.12037488,0.31957933
1740493975668,-0.066046394,-0.128897,0.3153183
1740493975673,-0.09161274,-0.13635385,0.3089267
1740493975678,-0.111852765,-0.13848437,0.29827404
1740493975684,-0.13422333,-0.13102753,0.28336033
1740493975689,-0.15233281,-0.11824436,0.26738137
1740493975693,-0.16724652,-0.10333065,0.25246766
1740493975699,-0.17470337,-0.083090626,0.23861924
1740493975707,-0.1768339,-0.06391586,0.22264028
1740493975708,-0.16937704,-0.040480047,0.21198763
1740493975724,-0.1555286,-0.018109497,0.20453078
1740493975725,-0.14274544,0.004261058,0.19920446
1740493975725,-0.13315806,0.01917476,0.20026971
1740493975727,-0.13209279,0.026631612,0.20453078
1740493975732,-0.13741912,0.026631612,0.20985709
1740493975737,-0.15233281,0.018109497,0.22050974
1740493975742,-0.17470337,0.0,0.23222765
1740493975747,-0.20240025,-0.026631612,0.24074976
1740493975751,-0.23222765,-0.06178534,0.25033715
1740493975756,-0.25885928,-0.10759171,0.25885928
1740493975761,-0.28122982,-0.15978967,0.26738137
1740493975766,-0.2972088,-0.2130529,0.2790993
1740493975771,-0.3057309,-0.26525086,0.294013
1740493975776,-0.30466563,-0.31638354,0.3089267
1740493975781,-0.2972088,-0.3685815,0.3206446
1740493975787,-0.2790993,-0.41545314,0.3355583
1740493975792,-0.25033715,-0.45060685,0.35473305
1740493975797,-0.21411815,-0.47404268,0.37710363
1740493975802,-0.17470337,-0.4889564,0.39521313
1740493975807,-0.13422333,-0.49534798,0.40906155
1740493975812,-0.096939065,-0.4889564,0.41971418
1740493975818,-0.068176925,-0.4708469,0.4250405
1740493975822,-0.053263225,-0.4346279,0.4261058
1740493975826,-0.05539375,-0.39627838,0.42290998
1740493975831,-0.07669904,-0.36218992,0.4133226
1740493975837,-0.1107875,-0.330232,0.39627838
1740493975842,-0.1555286,-0.30253512,0.37390783
1740493975846,-0.20985709,-0.2790993,0.3472762
1740493975851,-0.26525086,-0.2609898,0.3174488
1740493975860,-0.3206446,-0.25246766,0.28549087
1740493975860,-0.3717773,-0.25033715,0.2545982
1740493975866,-0.41971418,-0.25353295,0.22583607
1740493975871,-0.4612595,-0.25672874,0.19707392
1740493975876,-0.49747851,-0.26525086,0.16618125
1740493975881,-0.531567,-0.2876214,0.13528858
1740493975886,-0.5603291,-0.32170987,0.11717909
1740493975891,-0.58909124,-0.36751625,0.10546118
1740493975896,-0.61891866,-0.4165184,0.094808534
1740493975901,-0.64768076,-0.45593318,0.08841695
1740493975905,-0.67537767,-0.48363006,0.082025364
1740493975910,-0.6924219,-0.50387007,0.07882957
1740493975915,-0.6988135,-0.515588,0.07563378
1740493975920,-0.6956177,-0.51984906,0.07350325
1740493975925,-0.67537767,-0.5113269,0.07243799
1740493975930,-0.6402239,-0.4878911,0.06711166
1740493975936,-0.5901565,-0.45060685,0.058589544
1740493975940,-0.5294364,-0.4016047,0.046871636
1740493975945,-0.46232477,-0.34514567,0.035153728
1740493975950,-0.39414784,-0.28655612,0.01917476
1740493975955,-0.32597092,-0.23329292,-0.0010652645
1740493975960,-0.26525086,-0.18642128,-0.023435818
1740493975965,-0.21731395,-0.14487597,-0.046871636
1740493975970,-0.17896444,-0.10865697,-0.07350325
1740493975975,-0.15126756,-0.07882957,-0.098004326
1740493975980,-0.13102753,-0.060720075,-0.12144015
1740493975985,-0.11824436,-0.051132694,-0.14168017
1740493975989,-0.10972224,-0.051132694,-0.15978967
1740493975994,-0.0958738,-0.05219796,-0.17789917
1740493975999,-0.07563378,-0.05219796,-0.18961707
1740493976004,-0.04261058,-0.051132694,-0.1949434
1740493976009,0.0053263223,-0.053263225,-0.20026971
1740493976014,0.06498113,-0.05965481,-0.20772657
1740493976019,0.1257012,-0.07243799,-0.21624869
1740493976024,0.18429075,-0.0777643,-0.22796659
1740493976029,0.23329292,-0.084155895,-0.24181503
1740493976034,0.26844665,-0.09267801,-0.2609898
1740493976039,0.29188246,-0.099069595,-0.28336033
1740493976044,0.30040458,-0.10652645,-0.30999196
1740493976049,0.294013,-0.11824436,-0.34088463
1740493976054,0.2759035,-0.13528858,-0.37816888
1740493976059,0.25033715,-0.15020229,-0.4133226
1740493976065,0.221575,-0.16831179,-0.45060685
1740493976068,0.19068234,-0.18961707,-0.48469532
1740493976074,0.16405073,-0.21198763,-0.51452273
1740493976080,0.13954964,-0.24074976,-0.53795856
1740493976083,0.11930962,-0.26844665,-0.5581986
1740493976087,0.10759171,-0.294013,-0.5773733
1740493976092,0.10013486,-0.32170987,-0.5954828
1740493976098,0.10333065,-0.34301516,-0.6135923
1740493976102,0.10652645,-0.35792887,-0.6317018
1740493976107,0.11611383,-0.3685815,-0.64341974
1740493976112,0.12144015,-0.37710363,-0.6498113
1740493976117,0.12463594,-0.37923414,-0.6530071
1740493976122,0.12357068,-0.38136467,-0.6540724
1740493976127,0.11824436,-0.37603834,-0.6498113
1740493976133,0.1107875,-0.3653857,-0.64555025
1740493976137,0.10333065,-0.3536678,-0.6412892
1740493976142,0.09267801,-0.34194988,-0.6359629
1740493976147,0.07989483,-0.33129725,-0.6295713
1740493976152,0.06924219,-0.32597092,-0.624245
1740493976157,0.056459017,-0.32597092,-0.6199839
1740493976162,0.049002163,-0.3291667,-0.6178534
1740493976166,0.04474111,-0.34194988,-0.62104917
1740493976171,0.049002163,-0.35153726,-0.624245
1740493976177,0.054328486,-0.36218992,-0.6295713
1740493976181,0.05752428,-0.37816888,-0.6380934
1740493976187,0.06498113,-0.3930826,-0.64555025
1740493976192,0.068176925,-0.40586576,-0.65194184
1740493976205,0.070307456,-0.4165184,-0.660464
1740493976206,0.06498113,-0.4282363,-0.67005134
1740493976207,0.06178534,-0.43356264,-0.6775082
1740493976220,0.05539375,-0.43356264,-0.6860303
1740493976221,0.04580637,-0.4250405,-0.69774824
1740493976223,0.033023197,-0.4133226,-0.71159667
1740493976226,0.02130529,-0.39414784,-0.72011876
1740493976232,0.0127831735,-0.3717773,-0.72970617
1740493976237,0.004261058,-0.35260254,-0.73609775
1740493976242,0.0010652645,-0.3291667,-0.74248934
1740493976246,0.0,-0.30786142,-0.74781567
1740493976251,0.002130529,-0.28229508,-0.7520767
1740493976257,0.0063915867,-0.25353295,-0.753142
1740493976261,0.013848438,-0.22583607,-0.75101143
1740493976266,0.022370555,-0.20133498,-0.74461985
1740493976271,0.02876214,-0.18535602,-0.7339672
1740493976278,0.033023197,-0.1768339,-0.72011876
1740493976281,0.036218993,-0.17257284,-0.7030745
1740493976286,0.037284255,-0.16831179,-0.6849651
1740493976292,0.037284255,-0.16618125,-0.6689861
1740493976296,0.033023197,-0.165116,-0.6530071
1740493976301,0.022370555,-0.17257284,-0.6402239
1740493976306,0.013848438,-0.17896444,-0.628506
1740493976311,0.008522116,-0.18961707,-0.61572284
1740493976317,0.0010652645,-0.20133498,-0.6018744
1740493976321,-0.002130529,-0.20772657,-0.5901565
1740493976327,-0.0010652645,-0.20772657,-0.5795039
1740493976337,0.0010652645,-0.20559604,-0.5699165
1740493976338,0.0063915867,-0.2034655,-0.56245965
1740493976368,0.013848438,-0.19813919,-0.5550028
1740493976369,0.023435818,-0.1917476,-0.5486112
1740493976370,0.03834952,-0.18109496,-0.5411543
1740493976370,0.058589544,-0.16192019,-0.5336975
1740493976371,0.08522116,-0.14807177,-0.5273059
1740493976372,0.11611383,-0.12357068,-0.5187838
1740493976372,0.1470065,-0.099069595,-0.5091964
1740493976394,0.17470337,-0.07243799,-0.50173956
1740493976395,0.20026971,-0.04580637,-0.49534798
1740493976395,0.21731395,-0.023435818,-0.49002165
1740493976395,0.221575,-0.002130529,-0.4825648
1740493976396,0.20985709,0.0127831735,-0.47510794
1740493976421,0.19068234,0.025566347,-0.4676511
1740493976421,0.19068234,0.025566347,-0.4676511
1740493976422,0.16724652,0.036218993,-0.45380265
1740493976423,0.13954964,0.03834952,-0.43995422
1740493976423,0.11611383,0.035153728,-0.42717105
1740493976423,0.096939065,0.025566347,-0.41864893
1740493976430,0.080960095,0.00958738,-0.4101268
1740493976500,0.07137272,-0.011717909,-0.40266997
1740493976500,0.06391586,-0.037284255,-0.40053943
1740493976501,0.05539375,-0.06498113,-0.40266997
1740493976502,0.043675844,-0.083090626,-0.4111921
1740493976502,0.025566347,-0.09161274,-0.4250405
1740493976503,0.002130529,-0.09161274,-0.44847634
1740493976503,-0.034088463,-0.08522116,-0.47297743
1740493976503,-0.0777643,-0.070307456,-0.49854377
1740493976504,-0.1257012,-0.05006743,-0.5219796
1740493976504,-0.1736381,-0.023435818,-0.53795856
1740493976504,-0.21944448,0.0127831735,-0.5432849
1740493976505,-0.25885928,0.06178534,-0.5368933
1740493976505,-0.2876214,0.111852765,-0.5187838
1740493976505,-0.3089267,0.15765914,-0.49215218
1740493976507,-0.32170987,0.20559604,-0.45806372
1740493976507,-0.32597092,0.2545982,-0.41438788
1740493976524,-0.3270362,0.30466563,-0.36645097
1740493976524,-0.32384038,0.35579833,-0.3110572
1740493976524,-0.31638354,0.40266997,-0.24820662
1740493976528,-0.30679616,0.44421527,-0.18535602
1740493976533,-0.29507825,0.47404268,-0.12144015
1740493976537,-0.28549087,0.48363006,-0.05965481
1740493976542,-0.27803403,0.47617322,-0.0010652645
1740493976547,-0.2790993,0.44741106,0.05006743
1740493976552,-0.28975195,0.39947417,0.09374327
1740493976557,-0.314253,0.3270362,0.13102753
1740493976562,-0.3536678,0.23861924,0.15446335
1740493976567,-0.4133226,0.14274544,0.16618125
1740493976572,-0.4857606,0.049002163,0.16405073
1740493976577,-0.5603291,-0.033023197,0.15126756
1740493976583,-0.62744075,-0.096939065,0.12463594
1740493976587,-0.680704,-0.13209279,0.09374327
1740493976593,-0.7073356,-0.13422333,0.06391586
1740493976598,-0.7137272,-0.10652645,0.034088463
1740493976602,-0.7030745,-0.05006743,0.0053263223
1740493976606,-0.6711166,0.035153728,-0.011717909
1740493976614,-0.6221144,0.14807177,-0.0127831735
1740493976616,-0.55606806,0.28122982,0.004261058
1740493976621,-0.479369,0.42397526,0.037284255
1740493976626,-0.3930826,0.5656554,0.08948222
1740493976631,-0.30360037,0.700944,0.1587244
1740493976636,-0.21624869,0.8213189,0.24607609
1740493976642,-0.12783173,0.91612744,0.34194988
1740493976646,-0.039414786,0.9779128,0.43888897
1740493976651,0.049002163,1.0056096,0.531567
1740493976656,0.14274544,0.9960223,0.6178534
1740493976661,0.23009712,0.95447695,0.69774824
1740493976666,0.3057309,0.88203895,0.76912093
1740493976671,0.3653857,0.78936094,0.8319715
1740493976676,0.40373522,0.6892261,0.8809737
1740493976681,0.42184472,0.58909124,0.9139969
1740493976686,0.4261058,0.5006743,0.9331717
1740493976691,0.41971418,0.42077947,0.93849796
1740493976695,0.4048005,0.35153726,0.9257148
1740493976701,0.37816888,0.29294774,0.8990832
1740493976706,0.34301516,0.24820662,0.8607337
1740493976713,0.30040458,0.22264028,0.809601
1740493976727,0.25353295,0.21944448,0.753142
1740493976731,0.20453078,0.23435818,0.6956177
1740493976731,0.15446335,0.26525086,0.6359629
1740493976732,0.10972224,0.30253512,0.5784386
1740493976735,0.06498113,0.34408042,0.5251754
1740493976740,0.027696876,0.3834952,0.47617322
1740493976747,-0.008522116,0.4165184,0.4346279
1740493976751,-0.039414786,0.43888897,0.39947417
1740493976755,-0.0628506,0.44741106,0.3717773
1740493976760,-0.0777643,0.44741106,0.35260254
1740493976765,-0.0777643,0.43782368,0.34194988
1740493976771,-0.07137272,0.41545314,0.3387541
1740493976775,-0.053263225,0.386691,0.34088463
1740493976780,-0.03195793,0.3536678,0.34514567
1740493976785,-0.0063915867,0.3174488,0.35153726
1740493976791,0.020240024,0.27803403,0.35792887
1740493976795,0.04474111,0.24074976,0.36751625
1740493976799,0.06711166,0.20985709,0.3749731
1740493976805,0.08735169,0.18748654,0.38242993
1740493976811,0.10226539,0.16618125,0.39095205
1740493976816,0.11717909,0.15765914,0.39947417
1740493976819,0.13102753,0.1587244,0.40373522
1740493976825,0.14594123,0.17470337,0.406931
1740493976831,0.16405073,0.19707392,0.406931
1740493976835,0.18216023,0.221575,0.406931
1740493976840,0.20133498,0.24607609,0.4079963
1740493976845,0.21518342,0.26844665,0.41225734
1740493976851,0.22690132,0.29294774,0.41758367
1740493976855,0.23222765,0.314253,0.42397526
1740493976859,0.23542345,0.3334278,0.43249738
1740493976865,0.23435818,0.34194988,0.44208476
1740493976869,0.23009712,0.3387541,0.45380265
1740493976874,0.2247708,0.32597092,0.46232477
1740493976882,0.21518342,0.30466563,0.47191215
1740493976883,0.20559604,0.28122982,0.479369
1740493976889,0.19920446,0.25566345,0.4878911
1740493976895,0.19068234,0.22903186,0.49854377
1740493976898,0.18109496,0.1949434,0.50600064
1740493976904,0.16937704,0.15765914,0.51026165
1740493976909,0.15446335,0.11717909,0.5123922
1740493976915,0.13528858,0.07669904,0.5113269
1740493976919,0.112918034,0.037284255,0.51026165
1740493976924,0.08628642,0.002130529,0.5070659
1740493976929,0.05752428,-0.029827405,0.5028048
1740493976934,0.025566347,-0.06178534,0.50173956
1740493976939,-0.004261058,-0.08522116,0.5028048
1740493976944,-0.027696876,-0.098004326,0.50387007
1740493976948,-0.0479369,-0.10333065,0.5091964
1740493976953,-0.060720075,-0.098004326,0.51771855
1740493976958,-0.0628506,-0.080960095,0.52624065
1740493976963,-0.056459017,-0.066046394,0.535828
1740493976969,-0.046871636,-0.04580637,0.54435015
1740493976973,-0.029827405,-0.020240024,0.5539375
1740493976978,-0.0127831735,0.007456851,0.5613944
1740493976983,0.004261058,0.033023197,0.56672066
1740493976993,0.0063915867,0.04580637,0.567786
1740493976994,0.002130529,0.049002163,0.5656554
1740493977000,-0.015978966,0.04580637,0.5603291
1740493977003,-0.041545313,0.03195793,0.55287224
1740493977008,-0.07350325,0.010652645,0.5422196
1740493977014,-0.10652645,-0.020240024,0.53263223
1740493977017,-0.14061491,-0.060720075,0.5209143
1740493977023,-0.17257284,-0.10759171,0.5070659
1740493977028,-0.20453078,-0.1555286,0.49002165
1740493977033,-0.23222765,-0.20240025,0.47830373
1740493977037,-0.25566345,-0.24607609,0.46978164
1740493977042,-0.27696875,-0.28229508,0.4644553
1740493977048,-0.29614353,-0.3089267,0.46339005
1740493977052,-0.3121225,-0.33129725,0.46658584
1740493977057,-0.32170987,-0.3387541,0.47510794
1740493977062,-0.32810146,-0.33449304,0.48363006
1740493977067,-0.33129725,-0.3206446,0.49215218
1740493977072,-0.33129725,-0.30146983,0.49747851
1740493977077,-0.32384038,-0.2759035,0.49960902
1740493977082,-0.30999196,-0.24927188,0.49534798
1740493977088,-0.29188246,-0.221575,0.4857606
1740493977091,-0.27164245,-0.19707392,0.47191215
1740493977096,-0.2545982,-0.18855181,0.45060685
1740493977102,-0.24714136,-0.19707392,0.42717105
1740493977106,-0.25246766,-0.21731395,0.4016047
1740493977111,-0.26738137,-0.24501082,0.37816888
1740493977116,-0.29188246,-0.27803403,0.35792887
1740493977121,-0.330232,-0.31638354,0.33662358
1740493977127,-0.37710363,-0.35579833,0.3110572
1740493977135,-0.4282363,-0.39947417,0.28122982
1740493977136,-0.48043427,-0.44208476,0.24501082
1740493977141,-0.53263223,-0.48043427,0.19920446
1740493977147,-0.5837649,-0.51984906,0.1470065
1740493977150,-0.63702816,-0.5603291,0.08841695
1740493977155,-0.6945524,-0.6061355,0.023435818
1740493977160,-0.7488809,-0.6402239,-0.041545313
1740493977165,-0.8000136,-0.6583334,-0.10759171
1740493977170,-0.8447547,-0.6593987,-0.17150758
1740493977175,-0.8767126,-0.6412892,-0.22903186
1740493977180,-0.8926916,-0.6114618,-0.28122982
1740493977187,-0.89375687,-0.56672066,-0.32277513
1740493977191,-0.8724516,-0.50813115,-0.3536678
1740493977196,-0.8309063,-0.45486793,-0.38242993
1740493977200,-0.7637946,-0.3898868,-0.4048005
1740493977206,-0.6849651,-0.3153183,-0.4111921
1740493977211,-0.59761333,-0.23861924,-0.39734364
1740493977219,-0.5049353,-0.16618125,-0.37816888
1740493977220,-0.4016047,-0.096939065,-0.35579833
1740493977227,-0.2972088,-0.034088463,-0.33129725
1740493977233,-0.1949434,0.014913702,-0.30040458
1740493977235,-0.098004326,0.04580637,-0.2695119
1740493977241,-0.0127831735,0.05006743,-0.24181503
1740493977248,0.0628506,0.023435818,-0.21731395
1740493977249,0.12463594,-0.02876214,-0.20026971
1740493977255,0.17257284,-0.09161274,-0.18535602
1740493977261,0.21198763,-0.15446335,-0.17257284
1740493977266,0.2428803,-0.21198763,-0.1587244
1740493977271,0.27483824,-0.26205507,-0.14594123
1740493977275,0.30679616,-0.30253512,-0.13741912
1740493977281,0.34088463,-0.33449304,-0.13102753
1740493977286,0.3749731,-0.35260254,-0.13315806
1740493977290,0.4111921,-0.35473305,-0.13741912
1740493977296,0.44421527,-0.34621096,-0.14594123
1740493977300,0.47723848,-0.3270362,-0.15765914
1740493977307,0.5049353,-0.29933932,-0.17044231
1740493977310,0.51984906,-0.27057716,-0.1917476
1740493977317,0.52837116,-0.24181503,-0.21518342
1740493977320,0.52837116,-0.21198763,-0.24501082
1740493977328,0.51984906,-0.19068234,-0.2790993
1740493977329,0.5006743,-0.1768339,-0.31957933
1740493977335,0.47510794,-0.16831179,-0.36432046
1740493977340,0.44315,-0.165116,-0.41438788
1740493977346,0.4101268,-0.16405073,-0.4676511
1740493977350,0.38029942,-0.16831179,-0.5219796
1740493977355,0.35260254,-0.18109496,-0.5763081
1740493977361,0.32810146,-0.19600865,-0.624245
1740493977368,0.3057309,-0.2130529,-0.6679208
1740493977368,0.2908172,-0.23116238,-0.7030745
1740493977376,0.27696875,-0.24501082,-0.72970617
1740493977379,0.26738137,-0.24927188,-0.74461985
1740493977386,0.26312032,-0.24927188,-0.7520767
1740493977389,0.26525086,-0.24181503,-0.75633776
1740493977396,0.27483824,-0.22690132,-0.7520767
1740493977398,0.28655612,-0.2066613,-0.74461985
1740493977410,0.29933932,-0.18322548,-0.737163
1740493977411,0.3121225,-0.15339808,-0.7307714
1740493977413,0.32597092,-0.12357068,-0.7254451
1740493977417,0.3323625,-0.098004326,-0.721184
1740493977422,0.3323625,-0.080960095,-0.72011876
1740493977427,0.32810146,-0.07137272,-0.721184
1740493977432,0.314253,-0.06711166,-0.7233146
1740493977436,0.29933932,-0.066046394,-0.7275756
1740493977442,0.28229508,-0.06498113,-0.7307714
1740493977446,0.26631612,-0.07243799,-0.7307714
1740493977451,0.24820662,-0.08628642,-0.7286409
1740493977457,0.23222765,-0.10439592,-0.7254451
1740493977466,0.21731395,-0.12463594,-0.7190535
1740493977479,0.20772657,-0.13954964,-0.70840085
1740493977481,0.20026971,-0.15020229,-0.6945524
1740493977482,0.20240025,-0.1587244,-0.67963874
1740493977483,0.2066613,-0.16192019,-0.664725
1740493977486,0.21411815,-0.165116,-0.6498113
1740493977494,0.22583607,-0.16618125,-0.6317018
1740493977497,0.2428803,-0.17044231,-0.6103965
1740493977503,0.25672874,-0.17257284,-0.588026
1740493977507,0.27164245,-0.17044231,-0.5656554
1740493977512,0.2876214,-0.16937704,-0.54435015
1740493977517,0.30040458,-0.16724652,-0.5209143
1740493977523,0.3089267,-0.16298546,-0.50173956
1740493977527,0.31318775,-0.1587244,-0.4857606
1740493977533,0.31851408,-0.15233281,-0.47297743
1740493977537,0.32597092,-0.14807177,-0.46552056
1740493977543,0.3355583,-0.13635385,-0.46232477
1740493977547,0.34408042,-0.12144015,-0.46019423
1740493977552,0.350472,-0.10759171,-0.46019423
1740493977563,0.3472762,-0.096939065,-0.45912898
1740493977564,0.33768883,-0.094808534,-0.45806372
1740493977567,0.3206446,-0.094808534,-0.4612595
1740493977572,0.29614353,-0.08735169,-0.46339005
1740493977577,0.2609898,-0.07882957,-0.4644553
1740493977583,0.21731395,-0.06711166,-0.46871635
1740493977587,0.16618125,-0.05539375,-0.47510794
1740493977592,0.1107875,-0.03834952,-0.4857606
1740493977596,0.05752428,-0.017044231,-0.4910869
1740493977604,0.0053263223,0.0053263223,-0.49747851
1740493977605,-0.039414786,0.026631612,-0.5028048
1740493977611,-0.07989483,0.046871636,-0.5070659
1740493977617,-0.11611383,0.068176925,-0.5123922
1740493977621,-0.14913702,0.08628642,-0.5209143
1740493977626,-0.18429075,0.10226539,-0.5273059
1740493977631,-0.21624869,0.11504856,-0.52837116
1740493977637,-0.25353295,0.12676647,-0.5251754
1740493977640,-0.28975195,0.13635385,-0.51771855
1740493977646,-0.3206446,0.14807177,-0.5070659
1740493977650,-0.34514567,0.15765914,-0.49215218
1740493977656,-0.36645097,0.17257284,-0.47191215
1740493977662,-0.37816888,0.19068234,-0.44741106
1740493977665,-0.38562572,0.2130529,-0.41758367
1740493977671,-0.38456047,0.23861924,-0.38242993
1740493977676,-0.38242993,0.26738137,-0.34408042
1740493977685,-0.37284255,0.30253512,-0.30360037
1740493977685,-0.36218992,0.33129725,-0.26205507
1740493977691,-0.35153726,0.35473305,-0.22583607
1740493977696,-0.34834146,0.3653857,-0.19281286
1740493977703,-0.3568636,0.36432046,-0.16831179
1740493977704,-0.37603834,0.35260254,-0.1470065
1740493977711,-0.4101268,0.32490566,-0.128897
1740493977715,-0.45912898,0.2759035,-0.113983296
1740493977729,-0.5230448,0.21198763,-0.10439592
1740493977730,-0.5944176,0.14168017,-0.099069595
1740493977731,-0.6679208,0.06711166,-0.10333065
1740493977736,-0.73609775,0.0,-0.11504856
1740493977739,-0.7914915,-0.06498113,-0.13209279
1740493977743,-0.8383631,-0.12783173,-0.15126756
1740493977748,-0.87351686,-0.18322548,-0.17044231
1740493977755,-0.89588743,-0.23329292,-0.18855181
1740493977757,-0.9086706,-0.2759035,-0.20133498
1740493977762,-0.90654004,-0.29827404,-0.20772657
1740493977767,-0.8863,-0.29188246,-0.20559604
1740493977772,-0.84368944,-0.25353295,-0.1949434
1740493977778,-0.7850999,-0.18961707,-0.18002969
1740493977784,-0.70627034,-0.101200126,-0.15765914
1740493977788,-0.60720074,0.007456851,-0.12144015
1740493977792,-0.49428272,0.13422333,-0.070307456
1740493977798,-0.37603834,0.27057716,-0.0063915867
1740493977803,-0.2514024,0.40373522,0.07243799
1740493977807,-0.12783173,0.52837116,0.15765914
1740493977813,-0.014913702,0.6412892,0.24927188
1740493977820,0.08628642,0.7275756,0.34408042
1740493977823,0.17044231,0.7797736,0.43569317
1740493977830,0.24714136,0.79894835,0.5187838
1740493977835,0.30679616,0.793622,0.5901565
1740493977838,0.3536678,0.7637946,0.64768076
1740493977844,0.38562572,0.71585774,0.69348717
1740493977848,0.40266997,0.65726817,0.72651035
1740493977855,0.40906155,0.5965481,0.7488809
1740493977860,0.406931,0.5368933,0.7616641
1740493977863,0.39734364,0.48149952,0.76592517
1740493977873,0.3834952,0.43249738,0.7616641
1740493977874,0.36218992,0.38456047,0.75101143
1740493977879,0.33662358,0.34408042,0.737163
1740493977886,0.3057309,0.30999196,0.716923
1740493977886,0.27377295,0.28975195,0.69774824
1740493977893,0.23755397,0.27696875,0.6764429
1740493977898,0.2034655,0.27057716,0.6583334
1740493977904,0.1736381,0.26418558,0.63702816
1740493977907,0.14913702,0.257794,0.6178534
1740493977913,0.13422333,0.25246766,0.59867865
1740493977917,0.12676647,0.24714136,0.5795039
1740493977922,0.12783173,0.2396845,0.5571333
1740493977927,0.14061491,0.22264028,0.5368933
1740493977932,0.15659387,0.21198763,0.51665324
1740493977937,0.17576863,0.20453078,0.49960902
1740493977942,0.19387813,0.19813919,0.47830373
1740493977946,0.21411815,0.1949434,0.45167214
1740493977952,0.23222765,0.18961707,0.41971418
1740493977957,0.24714136,0.1917476,0.386691
1740493977961,0.25353295,0.19920446,0.3536678
1740493977966,0.257794,0.20985709,0.32277513
1740493977971,0.2514024,0.22050974,0.29188246
1740493977977,0.24181503,0.23861924,0.26844665
1740493977981,0.22370553,0.25566345,0.24927188
1740493977988,0.20026971,0.27057716,0.23222765
1740493977990,0.17257284,0.28229508,0.21837921
1740493977996,0.13954964,0.29294774,0.20772657
1740493978001,0.1107875,0.30040458,0.20133498
1740493978006,0.08522116,0.30466563,0.19920446
1740493978011,0.058589544,0.30040458,0.19920446
1740493978016,0.036218993,0.2876214,0.20772657
1740493978020,0.02130529,0.27164245,0.21944448
1740493978026,0.015978966,0.25566345,0.23755397
1740493978030,0.014913702,0.23009712,0.25885928
1740493978037,0.022370555,0.19813919,0.28336033
1740493978040,0.036218993,0.16618125,0.3121225
1740493978045,0.05219796,0.13741912,0.34301516
1740493978050,0.07456851,0.1107875,0.3749731
1740493978055,0.10439592,0.08522116,0.4048005
1740493978060,0.13741912,0.05965481,0.4314321
1740493978065,0.17150758,0.035153728,0.45167214
1740493978070,0.20453078,0.015978966,0.46871635
1740493978075,0.23329292,-0.0010652645,0.4857606
1740493978080,0.2545982,-0.014913702,0.49854377
1740493978085,0.26205507,-0.023435818,0.5070659
1740493978090,0.25885928,-0.01917476,0.515588
1740493978095,0.24394555,-0.011717909,0.5230448
1740493978100,0.22264028,-0.008522116,0.52837116
1740493978105,0.19387813,-0.007456851,0.5294364
1740493978110,0.16405073,-0.0063915867,0.531567
1740493978115,0.13741912,-0.010652645,0.531567
1740493978120,0.11504856,-0.022370555,0.5305017
1740493978125,0.09054748,-0.04474111,0.52837116
1740493978129,0.06178534,-0.07456851,0.5251754
1740493978135,0.034088463,-0.10865697,0.51984906
1740493978139,0.0031957934,-0.1470065,0.515588
1740493978144,-0.03195793,-0.18642128,0.5091964
1740493978149,-0.068176925,-0.22903186,0.5049353
1740493978155,-0.10013486,-0.27164245,0.49747851
1740493978159,-0.10013486,-0.27164245,0.49747851
1740493978164,-0.12783173,-0.314253,0.4878911
1740493978169,-0.15446335,-0.3536678,0.47510794
1740493978175,-0.1768339,-0.3888215,0.45699844
1740493978179,-0.19707392,-0.4111921,0.43995422
1740493978185,-0.2130529,-0.43249738,0.42184472
1740493978189,-0.21944448,-0.44421527,0.40266997
1740493978194,-0.21731395,-0.44741106,0.38456047
1740493978199,-0.20985709,-0.44421527,0.36432046
1740493978205,-0.20026971,-0.43036684,0.34940675
1740493978209,-0.19068234,-0.406931,0.3355583
1740493978215,-0.18002969,-0.37603834,0.32170987
1740493978219,-0.17044231,-0.33768883,0.30999196
1740493978230,-0.16298546,-0.29827404,0.30360037
1740493978230,-0.1555286,-0.26418558,0.30253512
1740493978234,-0.14168017,-0.23435818,0.3089267
1740493978239,-0.12676647,-0.20985709,0.3206446
1740493978243,-0.10865697,-0.18855181,0.33768883
1740493978248,-0.09054748,-0.17576863,0.35579833
1740493978256,-0.080960095,-0.17150758,0.37390783
1740493978257,-0.07350325,-0.17470337,0.38562572
1740493978263,-0.07563378,-0.18002969,0.38562572
1740493978268,-0.08522116,-0.1917476,0.38242993
1740493978273,-0.10226539,-0.20985709,0.37071204
1740493978278,-0.12783173,-0.23755397,0.35153726
1740493978283,-0.16085494,-0.27164245,0.330232
1740493978288,-0.20240025,-0.3057309,0.2972088
1740493978293,-0.24501082,-0.34301516,0.25353295
1740493978298,-0.29188246,-0.37923414,0.20453078
1740493978304,-0.34408042,-0.4165184,0.15233281
1740493978307,-0.39734364,-0.4527374,0.099069595
1740493978313,-0.45380265,-0.49428272,0.04580637
1740493978317,-0.5070659,-0.5336975,-0.007456851
1740493978323,-0.5571333,-0.56459016,-0.060720075
1740493978327,-0.60293967,-0.5795039,-0.113983296
1740493978333,-0.6359629,-0.5773733,-0.16192019
1740493978338,-0.6562029,-0.55606806,-0.2066613
1740493978343,-0.6583334,-0.50813115,-0.24501082
1740493978348,-0.6412892,-0.43995422,-0.2759035
1740493978355,-0.60080916,-0.35260254,-0.29614353
1740493978356,-0.53795856,-0.25033715,-0.3057309
1740493978363,-0.46232477,-0.12996227,-0.30360037
1740493978378,-0.3717773,-0.004261058,-0.2876214
1740493978379,-0.27696875,0.12783173,-0.257794
1740493978380,-0.18322548,0.25566345,-0.22264028
1740493978381,-0.098004326,0.36751625,-0.18002969
1740493978400,-0.022370555,0.45380265,-0.13635385
1740493978401,0.040480047,0.5070659,-0.0958738
1740493978401,0.09374327,0.5273059,-0.05752428
1740493978401,0.13635385,0.5219796,-0.01917476
1740493978411,0.16937704,0.49321744,0.013848438
1740493978412,0.19600865,0.44208476,0.0479369
1740493978418,0.21518342,0.36325517,0.0777643
1740493978421,0.23755397,0.26312032,0.10013486
1740493978460,0.2609898,0.15233281,0.11611383
1740493978460,0.28868666,0.034088463,0.12676647
1740493978460,0.3153183,-0.08735169,0.12463594
1740493978460,0.33449304,-0.19387813,0.0958738
1740493978460,0.34621096,-0.28868666,0.046871636
1740493978460,0.35260254,-0.36645097,-0.0053263223
1740493978461,0.34940675,-0.41864893,-0.056459017
1740493978461,0.3387541,-0.44741106,-0.1107875
1740493978465,0.31638354,-0.4495416,-0.17789917
1740493978473,0.28549087,-0.4282363,-0.25353295
1740493978482,0.2428803,-0.39095205,-0.33129725
1740493978484,0.19068234,-0.34194988,-0.40373522
1740493978484,0.13209279,-0.28442562,-0.4676511
1740493978495,0.06924219,-0.22903186,-0.5230448
1740493978496,0.010652645,-0.16831179,-0.5752428
1740493978501,-0.034088463,-0.10759171,-0.62104917
1740493978507,-0.068176925,-0.049002163,-0.6593987
1740493978509,-0.08948222,0.002130529,-0.6870956
1740493978514,-0.099069595,0.034088463,-0.70200926
1740493978519,-0.096939065,0.05965481,-0.69987875
1740493978524,-0.082025364,0.07456851,-0.6870956
1740493978529,-0.058589544,0.082025364,-0.6689861
1740493978535,-0.02876214,0.07989483,-0.6498113
1740493978541,0.0,0.07137272,-0.628506
1740493978544,0.029827405,0.058589544,-0.6040049
1740493978551,0.05539375,0.04261058,-0.5837649
1740493978561,0.07669904,0.02130529,-0.567786
1740493978561,0.09161274,0.0031957934,-0.5496765
1740493978565,0.10546118,0.0063915867,-0.51984906
1740493978575,0.113983296,0.013848438,-0.50387007
1740493978575,0.10759171,0.00958738,-0.50813115
1740493978579,0.096939065,-0.010652645,-0.53263223
1740493978584,0.08628642,-0.01917476,-0.56885123
1740493978591,0.083090626,-0.008522116,-0.60507023
1740493978594,0.083090626,0.014913702,-0.6380934
1740493978600,0.0777643,0.04261058,-0.664725
1740493978608,0.06391586,0.068176925,-0.69135666
1740493978608,0.03834952,0.09374327,-0.71479243
1740493978614,0.011717909,0.11930962,-0.7392935
1740493978619,-0.023435818,0.15126756,-0.757403
1740493978626,-0.06498113,0.18429075,-0.7701862
1740493978629,-0.10865697,0.22050974,-0.78083885
1740493978635,-0.15339808,0.26312032,-0.7882957
1740493978644,-0.19281286,0.30786142,-0.78936094
1740493978644,-0.22370553,0.350472,-0.7819041
1740493978648,-0.2428803,0.38456047,-0.7637946
1740493978653,-0.25246766,0.40906155,-0.7392935
1740493978659,-0.25353295,0.41758367,-0.7052051
1740493978663,-0.24607609,0.40586576,-0.66365975
1740493978668,-0.22903186,0.37816888,-0.6146576
1740493978674,-0.19920446,0.33662358,-0.5656554
1740493978677,-0.15978967,0.2972088,-0.5219796
1740493978684,-0.12357068,0.2790993,-0.49854377
1740493978692,-0.099069595,0.30146983,-0.5070659
1740493978693,-0.08735169,0.32490566,-0.51026165
1740493978698,-0.09161274,0.32810146,-0.50387007
1740493978703,-0.10759171,0.32597092,-0.49854377
1740493978709,-0.12357068,0.330232,-0.5091964
1740493978729,-0.14061491,0.33768883,-0.54648066
1740493978729,-0.14807177,0.34194988,-0.6018744
1740493978731,-0.15020229,0.33981937,-0.6593987
1740493978731,-0.14487597,0.34088463,-0.7052051
1740493978731,-0.13528858,0.35792887,-0.737163
1740493978743,-0.12463594,0.3898868,-0.757403
1740493978743,-0.113983296,0.43249738,-0.76059884
1740493978748,-0.10226539,0.4857606,-0.7488809
1740493978753,-0.08841695,0.5390238,-0.7307714
1740493978756,-0.07243799,0.58909124,-0.7094661
1740493978762,-0.05006743,0.63702816,-0.68816084
1740493978767,-0.025566347,0.67324716,-0.664725
1740493978771,-0.0031957934,0.6924219,-0.63702816
1740493978777,0.020240024,0.69987875,-0.6114618
1740493978783,0.04474111,0.7052051,-0.58696073
1740493978787,0.07456851,0.71479243,-0.56459016
1740493978791,0.111852765,0.7307714,-0.5422196
1740493978797,0.15659387,0.7392935,-0.5123922
1740493978803,0.20879184,0.73822826,-0.47830373
1740493978806,0.26738137,0.7286409,-0.44421527
1740493978810,0.3270362,0.7126619,-0.4133226
1740493978817,0.37284255,0.7030745,-0.38775626
1740493978821,0.4016047,0.6988135,-0.36964676
1740493978826,0.41438788,0.6988135,-0.35792887
1740493978832,0.406931,0.69774824,-0.35579833
1740493978837,0.38456047,0.69668293,-0.36005938
1740493978843,0.350472,0.6945524,-0.3685815
1740493978846,0.3110572,0.6849651,-0.38242993
1740493978852,0.26418558,0.6679208,-0.39840892
1740493978860,0.21731395,0.6423545,-0.4165184
1740493978861,0.17150758,0.60720074,-0.43675843
1740493978867,0.12250541,0.5550028,-0.45912898
1740493978871,0.06711166,0.4889564,-0.47617322
1740493978876,0.010652645,0.40586576,-0.4910869
1740493978881,-0.0479369,0.3110572,-0.49854377
1740493978887,-0.10759171,0.20985709,-0.49215218
1740493978893,-0.16724652,0.112918034,-0.47404268
1740493978894,-0.22370553,0.024501082,-0.44741106
1740493978901,-0.27483824,-0.049002163,-0.41225734
1740493978910,-0.3206446,-0.10439592,-0.3717773
1740493978911,-0.35792887,-0.14274544,-0.3291667
1740493978916,-0.37710363,-0.15446335,-0.28122982
1740493978921,-0.37284255,-0.13741912,-0.23009712
1740493978927,-0.33981937,-0.09161274,-0.17044231
1740493978929,-0.28229508,-0.024501082,-0.111852765
1740493978936,-0.19813919,0.058589544,-0.05752428
1740493978950,-0.08841695,0.15765914,-0.00958738
1740493978951,0.04474111,0.26525086,0.03195793
1740493978951,0.19281286,0.36964676,0.07243799
1740493978954,0.34194988,0.4612595,0.11504856
1740493978960,0.4825648,0.5209143,0.15978967
1740493978965,0.60720074,0.55074173,0.19920446
1740493978971,0.70200926,0.5422196,0.2247708
1740493978977,0.7669904,0.5123922,0.23755397
1740493978979,0.7946873,0.46339005,0.24820662
1740493978984,0.7914915,0.3920173,0.25992453
1740493978994,0.7616641,0.29933932,0.26844665
1740493978994,0.7190535,0.18535602,0.26312032
1740493979000,0.66365975,0.051132694,0.24394555
1740493979004,0.60080916,-0.08841695,0.21518342
1740493979013,0.5294364,-0.221575,0.18322548
1740493979014,0.45699844,-0.33129725,0.15978967
1740493979020,0.38456047,-0.4111921,0.14594123
1740493979024,0.3174488,-0.45806372,0.14061491
1740493979029,0.2514024,-0.46978164,0.14061491
1740493979034,0.18748654,-0.45912898,0.13954964
1740493979039,0.13528858,-0.41864893,0.1257012
1740493979044,0.099069595,-0.34088463,0.10972224
1740493979049,0.082025364,-0.24181503,0.094808534
1740493979054,0.083090626,-0.13954964,0.07989483
1740493979058,0.10333065,-0.034088463,0.07137272
1740493979065,0.13741912,0.054328486,0.066046394
1740493979070,0.18642128,0.11930962,0.06711166
1740493979075,0.24820662,0.16724652,0.07563378
1740493979078,0.3334278,0.22690132,0.09054748
1740493979085,0.44741106,0.29294774,0.111852765
1740493979089,0.567786,0.32170987,0.12676647
1740493979094,0.6849651,0.29933932,0.13315806
1740493979100,0.7850999,0.23222765,0.13528858
1740493979108,0.8607337,0.12996227,0.14274544
1740493979109,0.9139969,0.008522116,0.15659387
1740493979115,0.9416938,-0.111852765,0.1768339
1740493979120,0.95447695,-0.2130529,0.20453078
1740493979129,0.96086854,-0.28868666,0.23648871
1740493979129,0.97045594,-0.3355583,0.26738137
1740493979135,0.9853696,-0.34408042,0.3057309
1740493979138,0.9981528,-0.33129725,0.34514567
1740493979144,1.015197,-0.29507825,0.38242993
1740493979150,1.0354371,-0.22583607,0.41545314
1740493979152,1.0578076,-0.098004326,0.43782368
1740493979159,1.0812434,0.05539375,0.4612595
1740493979165,1.1004182,0.12996227,0.49960902
1740493979168,1.1185277,0.14594123,0.5432849
1740493979175,1.1270498,0.14913702,0.5784386
1740493979177,1.1227888,0.15126756,0.5933523
1740493979185,1.1110709,0.1438107,0.5901565
1740493979187,1.1014835,0.14061491,0.5795039
1740493979195,1.103614,0.15446335,0.56245965
1740493979197,1.1132014,0.19387813,0.5432849
1740493979205,1.128115,0.25885928,0.5230448
1740493979211,1.144094,0.33981937,0.50600064
1740493979212,1.1579424,0.4261058,0.49428272
1740493979218,1.1653993,0.5113269,0.49641323
1740493979227,1.1632688,0.59122175,0.51026165
1740493979228,1.1451592,0.664725,0.531567
1740493979236,1.1100056,0.7233146,0.551807
1740493979236,1.0610034,0.7584683,0.5581986
1740493979245,1.0045444,0.7765778,0.5539375
1740493979246,0.94275904,0.7861652,0.5422196
1740493979253,0.87564737,0.7946873,0.5273059
1740493979257,0.8042747,0.8064052,0.50600064
1740493979261,0.7307714,0.81705785,0.4825648
1740493979267,0.65513766,0.8159926,0.45912898
1740493979277,0.5763081,0.79894835,0.43782368
1740493979277,0.49534798,0.757403,0.41864893
1740493979291,0.41438788,0.70200926,0.40586576
1740493979292,0.34301516,0.6423545,0.39414784
1740493979292,0.28655612,0.5901565,0.3888215
1740493979297,0.24607609,0.5454154,0.38456047
1740493979302,0.22050974,0.5028048,0.38456047
1740493979306,0.20985709,0.4644553,0.38775626
1740493979311,0.20772657,0.4250405,0.39095205
1740493979317,0.21837921,0.38029942,0.39521313
1740493979322,0.23329292,0.33449304,0.39734364
1740493979325,0.24927188,0.2908172,0.39840892
1740493979331,0.2609898,0.2514024,0.39734364
1740493979336,0.2609898,0.21837921,0.3930826
1740493979341,0.25246766,0.18748654,0.3898868
1740493979346,0.23542345,0.14807177,0.386691
1740493979351,0.2066613,0.099069595,0.37923414
1740493979356,0.16618125,0.043675844,0.37071204
1740493979360,0.12144015,-0.007456851,0.36218992
1740493979366,0.084155895,-0.058589544,0.3568636
1740493979371,0.05752428,-0.112918034,0.3472762
1740493979377,0.040480047,-0.16937704,0.33768883
1740493979386,0.02876214,-0.221575,0.330232
1740493979386,0.02130529,-0.25885928,0.330232
1740493979394,0.015978966,-0.28336033,0.34194988
1740493979394,0.018109497,-0.29507825,0.36325517
1740493979400,0.024501082,-0.29507825,0.38775626
1740493979404,0.03089267,-0.28442562,0.41438788
1740493979409,0.03834952,-0.26312032,0.43888897
1740493979414,0.049002163,-0.23329292,0.46232477
1740493979419,0.05539375,-0.20879184,0.4825648
1740493979425,0.06498113,-0.18216023,0.5028048
1740493979430,0.068176925,-0.15233281,0.515588
1740493979434,0.06924219,-0.11824436,0.52624065
1740493979440,0.06924219,-0.084155895,0.5400891
1740493979453,0.06178534,-0.0479369,0.5486112
1740493979454,0.043675844,-0.013848438,0.5454154
1740493979454,0.015978966,0.0127831735,0.5294364
1740493979460,-0.023435818,0.023435818,0.49960902
1740493979464,-0.07563378,0.015978966,0.45806372
1740493979469,-0.14168017,-0.01917476,0.40586576
1740493979474,-0.21518342,-0.07350325,0.34621096
1740493979480,-0.30360037,-0.14913702,0.28016454
1740493979484,-0.39627838,-0.23116238,0.21198763
1740493979489,-0.49960902,-0.3174488,0.13954964
1740493979494,-0.60720074,-0.4048005,0.068176925
1740493979500,-0.7094661,-0.48469532,-0.0010652645
1740493979505,-0.7957525,-0.5475459,-0.060720075
1740493979509,-0.85966843,-0.5858955,-0.10972224
1740493979514,-0.89162636,-0.5997439,-0.1438107
1740493979520,-0.8905611,-0.5901565,-0.16618125
1740493979524,-0.8543421,-0.55074173,-0.1768339
1740493979528,-0.79042625,-0.4825648,-0.1736381
1740493979534,-0.7052051,-0.39414784,-0.15659387
1740493979539,-0.6018744,-0.28975195,-0.128897
1740493979545,-0.49321744,-0.17470337,-0.094808534
1740493979548,-0.386691,-0.05219796,-0.051132694
1740493979554,-0.29294774,0.06711166,-0.0010652645
1740493979561,-0.21198763,0.17470337,0.051132694
1740493979564,-0.14274544,0.25992453,0.098004326
1740493979569,-0.080960095,0.3270362,0.1257012
1740493979574,-0.022370555,0.3653857,0.13315806
1740493979579,0.03089267,0.37071204,0.128897
1740493979584,0.07882957,0.35473305,0.11824436
1740493979588,0.11504856,0.31957933,0.10013486
1740493979594,0.13848437,0.26844665,0.0777643
1740493979603,0.14594123,0.2066613,0.04580637
1740493979604,0.13422333,0.13102753,0.008522116
1740493979608,0.10439592,0.058589544,-0.03089267
1740493979614,0.06391586,-0.0127831735,-0.06498113
1740493979618,0.013848438,-0.07456851,-0.09374327
1740493979624,-0.03834952,-0.128897,-0.11611383
1740493979629,-0.096939065,-0.17789917,-0.13422333
1740493979633,-0.16192019,-0.2130529,-0.14594123
1740493979641,-0.221575,-0.23435818,-0.15446335
1740493979641,-0.27483824,-0.23435818,-0.16085494
1740493979649,-0.3174488,-0.21092236,-0.16405073
1740493979653,-0.34194988,-0.17044231,-0.17044231
1740493979658,-0.34194988,-0.1257012,-0.1768339
1740493979660,-0.3089267,-0.07989483,-0.18109496
1740493979666,-0.25033715,-0.033023197,-0.18002969
1740493979671,-0.17044231,0.00958738,-0.17150758
1740493979676,-0.07350325,0.046871636,-0.15765914
1740493979681,0.025566347,0.0777643,-0.13848437
1740493979686,0.12037488,0.10439592,-0.11504856
1740493979691,0.20240025,0.12996227,-0.08522116
1740493979696,0.26631612,0.15659387,-0.056459017
1740493979701,0.31851408,0.18961707,-0.02876214
1740493979706,0.35792887,0.22690132,-0.002130529
1740493979711,0.37923414,0.26205507,0.022370555
1740493979716,0.39095205,0.30146983,0.05006743
1740493979721,0.40373522,0.3387541,0.07563378
1740493979726,0.4293016,0.3536678,0.07350325
1740493979734,0.479369,0.38242993,0.05006743
1740493979736,0.54435015,0.41545314,0.03195793
1740493979740,0.59867865,0.4261058,0.013848438
1740493979746,0.6317018,0.43995422,-0.029827405
1740493979762,0.6764429,0.31957933,-0.07350325
1740493979762,0.7318367,0.10546118,-0.07882957
1740493979762,0.6988135,-0.16192019,-0.066046394
1740493979768,0.54435015,-0.45380265,-0.083090626
1740493979769,0.32810146,-0.6508766,-0.13422333
1740493979777,0.10865697,-0.628506,-0.18642128
1740493979787,-0.082025364,-0.47617322,-0.2396845
1740493979787,-0.22796659,-0.2908172,-0.31851408
1740493979822,-0.3206446,-0.12144015,-0.4250405
1740493979822,-0.37071204,0.015978966,-0.5496765
1740493979823,-0.39521313,0.11611383,-0.68816084
1740493979823,-0.406931,0.1768339,-0.8245147
1740493979823,-0.41545314,0.20772657,-0.9502159
1740493979823,-0.4250405,0.2066613,-1.0599382
1740493979823,-0.42717105,0.16405073,-1.1494204
1740493979824,-0.43036684,0.07882957,-1.2069446
1740493979833,-0.44315,-0.039414786,-1.2325109
1740493979833,-0.47723848,-0.18961707,-1.2325109
