1740493337042,1007.11206
1740493337220,1007.08325
1740493337398,1007.4204
1740493337584,1007.4365
1740493337754,1007.45044
1740493337936,1007.47144
1740493338110,1007.4939
1740493338289,1007.51196
1740493338466,1007.5796
1740493338643,1007.4426
1740493338858,1007.4614
1740493339001,1007.18286
1740493339177,1007.4104
1740493339356,1007.4375
1740493339535,1007.322
1740493339710,1007.4675
1740493339890,1007.19214
1740493340067,1007.4778
1740493340246,1007.3989
1740493340423,1007.42505
1740493340600,1007.4004
1740493340780,1007.4597
1740493340959,1007.5437
1740493341135,1007.21924
1740493341314,1007.55884
1740493341491,1007.5845
1740493341669,1007.24927
1740493341857,1007.39014
1740493342023,1007.3999
1740493342204,1007.4734
1740493342380,1007.41455
1740493342559,1007.39795
1740493342736,1007.4949
1740493342936,1007.44434
1740493343106,1007.21265
1740493343272,1007.42236
1740493343448,1007.42944
1740493343626,1007.54175
1740493343803,1007.478
1740493343983,1007.49316
1740493344159,1007.4822
1740493344337,1007.5332
1740493344515,1007.4983
1740493344692,1007.41943
1740493344889,1007.48
1740493345048,1007.48267
1740493345228,1007.5088
1740493345404,1007.4756
1740493345583,1007.48975
1740493345763,1007.60986
1740493345940,1007.5759
1740493346117,1007.4646
1740493346295,1007.5713
1740493346472,1007.69507
1740493346649,1007.67456
1740493346830,1007.5759
1740493347005,1007.66895
1740493347184,1007.6233
1740493347361,1007.8125
1740493347541,1007.7693
1740493347718,1007.7822
1740493347896,1007.86523
1740493348074,1007.8967
1740493348252,1007.8174
1740493348430,1007.85254
1740493348608,1007.865
1740493348784,1007.78076
1740493348962,1007.72754
1740493349141,1007.7063
1740493349319,1007.45654
1740493349496,1007.7051
1740493349674,1007.7295
1740493349852,1007.73804
1740493350030,1007.7986
1740493350209,1007.7761
1740493350388,1007.74854
1740493350564,1007.73315
1740493350744,1007.7656
1740493350920,1007.7632
1740493351099,1007.73047
1740493351275,1007.73364
1740493351455,1007.67114
1740493351633,1007.615
1740493351813,1007.67847
1740493351988,1007.75195
1740493352166,1007.594
1740493352349,1007.6997
1740493352521,1007.62964
1740493352700,1007.63745
1740493352877,1007.6194
1740493353057,1007.6245
1740493353233,1007.5762
1740493353416,1007.6438
1740493353589,1007.6301
1740493353768,1007.53784
1740493353945,1007.50024
1740493354125,1007.5737
1740493354300,1007.4497
1740493354478,1007.61646
1740493354656,1007.33765
1740493354834,1007.34937
1740493355011,1007.3042
1740493355195,1007.59985
1740493355368,1007.5415
1740493355546,1007.52344
1740493355724,1007.5398
1740493355904,1007.49146
1740493356081,1007.5178
1740493356257,1007.39453
1740493356436,1007.4426
1740493356613,1007.49414
1740493356792,1007.5073
1740493356970,1007.61523
1740493357148,1007.45605
1740493357327,1007.48193
1740493357506,1007.4409
1740493357681,1007.4939
1740493357859,1007.44995
1740493358036,1007.47974
1740493358214,1007.5154
1740493358392,1007.52
1740493358570,1007.54736
1740493358749,1007.4851
1740493358926,1007.4458
1740493359106,1007.4436
1740493359282,1007.4707
1740493359459,1007.4199
1740493359639,1007.44556
1740493359817,1007.4685
1740493359994,1007.5176
1740493360182,1007.54443
1740493360350,1007.3828
1740493360528,1007.2322
1740493360705,1007.46704
1740493360883,1007.4009
1740493361062,1007.47925
1740493361240,1007.4492
1740493361417,1007.44165
1740493361596,1007.50977
1740493361776,1007.46387
1740493361953,1007.2754
1740493362130,1007.57764
1740493362306,1007.5178
1740493362485,1007.5737
1740493362664,1007.5769
1740493362840,1007.5332
1740493363018,1007.5576
1740493363196,1007.5327
1740493363376,1007.5122
1740493363554,1007.4021
1740493363734,1007.50415
1740493363908,1007.501
1740493364085,1007.479
1740493364265,1007.45654
1740493364441,1007.49365
1740493364619,1007.4756
1740493364797,1007.4487
1740493364974,1007.4553
1740493365152,1007.3364
1740493365330,1007.17065
1740493365508,1007.49194
1740493365687,1007.199
1740493365864,1007.4214
1740493366044,1007.5354
1740493366219,1007.4204
1740493366400,1007.5425
1740493366576,1007.5498
1740493366934,1007.31396
1740493366934,1007.31396
1740493367111,1007.59204
1740493367288,1007.5808
1740493367466,1007.4243
1740493367644,1007.5127
1740493367822,1007.46655
1740493368001,1007.374
1740493368181,1007.4802
1740493368357,1007.5105
1740493368534,1007.5227
1740493368713,1007.4463
1740493368891,1007.4697
1740493369068,1007.447
1740493369246,1007.4873
1740493369422,1007.52075
1740493369602,1007.4949
1740493369780,1007.45776
1740493369957,1007.50146
1740493370136,1007.5083
1740493370312,1007.49365
1740493370491,1007.41406
1740493370670,1007.46826
1740493370848,1007.4402
1740493371026,1007.3198
1740493371203,1007.3508
1740493371381,1007.4341
1740493371560,1007.45557
1740493371738,1007.4468
1740493371915,1007.4802
1740493372094,1007.48584
1740493372271,1007.3513
1740493372448,1007.3889
1740493372628,1007.3799
1740493372804,1007.40405
1740493372981,1007.3611
1740493373159,1007.447
1740493373338,1007.4248
1740493373516,1007.41895
1740493373694,1007.44946
1740493373875,1007.51294
1740493374049,1007.5188
1740493374227,1007.50757
1740493374410,1007.39746
1740493374584,1007.1255
1740493374762,1007.4966
1740493374940,1007.469
1740493375118,1007.4756
1740493375296,1007.5259
1740493375475,1007.4392
1740493375654,1007.37646
1740493375833,1007.44336
1740493376006,1007.3965
1740493376185,1007.104
1740493376364,1007.3799
1740493376542,1007.42944
1740493376720,1007.51416
1740493376897,1007.5161
1740493377074,1007.5027
1740493377253,1007.5156
1740493377431,1007.3396
1740493377611,1007.54004
1740493377787,1007.4221
1740493377964,1007.4121
1740493378142,1007.3894
1740493378336,1007.405
1740493378498,1007.3767
1740493378675,1007.3308
1740493378854,1007.39307
1740493379032,1007.36743
1740493379210,1007.43506
1740493379389,1007.33325
1740493379565,1007.4094
1740493379744,1007.3728
1740493379922,1007.4258
1740493380097,1007.4612
1740493380277,1007.09424
1740493380454,1007.43164
1740493380634,1007.36694
1740493380812,1007.41235
1740493380990,1007.3323
1740493381167,1007.4121
1740493381354,1007.3169
1740493381525,1007.39526
1740493381701,1007.34424
1740493381879,1007.47314
1740493382056,1007.312
1740493382235,1007.49194
1740493382411,1007.4341
1740493382591,1007.4846
1740493382769,1007.4575
1740493382945,1007.4995
1740493383125,1007.46265
1740493383301,1007.46216
1740493383481,1007.4939
1740493383659,1007.44946
1740493383837,1007.4414
1740493384012,1007.4502
1740493384191,1007.4846
1740493384367,1007.4751
1740493384546,1007.1975
1740493384724,1007.14233
1740493384902,1007.3733
1740493385080,1007.5271
1740493385258,1007.40234
1740493385436,1007.3186
1740493385614,1007.26904
1740493385792,1007.3701
1740493385970,1007.34106
1740493386148,1007.3323
1740493386326,1007.34106
1740493386504,1007.04175
1740493386681,1007.365
1740493386864,1007.3174
1740493387039,1007.37964
1740493387217,1007.35474
1740493387399,1007.2986
1740493387569,1007.4297
1740493387750,1007.05225
1740493387928,1007.37256
1740493388109,1007.28467
1740493388284,1007.42993
1740493388461,1007.46313
