1740493962324,0.22445641,3.5990837,9.844957
1740493962333,0.18315643,3.5990837,9.934141
1740493962334,0.17477672,3.5853171,10.004171
1740493962339,0.18614918,3.590704,10.031107
1740493962344,0.20829555,3.5697548,10.064626
1740493962349,0.25917232,3.5847185,10.08737
1740493962354,0.31064767,3.5865142,10.147824
1740493962359,0.3573346,3.6092591,10.187927
1740493962364,0.39923313,3.6176388,10.127473
1740493962369,0.42676646,3.6445735,10.059238
1740493962374,0.43993455,3.6499605,10.00896
1740493962379,0.45310268,3.6828809,9.940725
1740493962384,0.47046062,3.6864722,9.858724
1740493962389,0.50517654,3.7271736,9.808446
1740493962393,0.5267244,3.7523127,9.721656
1740493962398,0.52073884,3.7241807,9.634268
1740493962403,0.533907,3.7062242,9.578004
1740493962408,0.53689975,3.6948519,9.574412
1740493962413,0.53809685,3.6403837,9.5732155
1740493962418,0.54408234,3.57993,9.63726
1740493962423,0.57640404,3.53863,9.6767645
1740493962428,0.60573304,3.4799721,9.659407
1740493962433,0.61890113,3.448249,9.654019
1740493962438,0.58538234,3.5236664,9.615114
1740493962443,0.58897364,3.5763388,9.530719
1740493962448,0.6254852,3.5847185,9.449316
1740493962453,0.6560113,3.5541923,9.446921
1740493962458,0.6775591,3.5104983,9.475652
1740493962463,0.682946,3.4877534,9.485229
1740493962468,0.7074866,3.465607,9.45171
1740493962473,0.7505822,3.472191,9.376891
1740493962477,0.777517,3.5152867,9.388862
1740493962483,0.8122329,3.5326445,9.43914
1740493962488,0.8062474,3.50152,9.512762
1740493962493,0.8487445,3.4847605,9.528324
1740493962497,0.9367314,3.4650085,9.554062
1740493962502,0.9888053,3.448249,9.700109
1740493962508,1.0630256,3.4159272,9.854534
1740493962512,1.1432313,3.3704374,9.891046
1740493962517,1.1839328,3.3596635,9.890448
1740493962522,1.1845313,3.330933,9.892242
1740493962527,1.1528081,3.3530796,10.168175
1740493962532,1.0474633,3.3584664,9.831191
1740493962537,1.0103531,3.276465,9.569026
1740493962542,0.92057055,3.2255883,9.432556
1740493962551,0.83497787,3.205836,9.3738985
1740493962551,0.79008657,3.2315738,9.28232
1740493962557,0.75956047,3.2483332,9.207501
1740493962562,0.7236475,3.2746694,9.155427
1740493962566,0.7188591,3.304597,9.093178
1740493962571,0.76315176,3.3476925,9.138668
1740493962576,0.7954735,3.3716345,9.157223
1740493962581,0.8984242,3.3931823,9.250597
1740493962586,0.98341835,3.4009635,9.31943
1740493962591,1.0648212,3.4626143,9.414599
1740493962596,1.1534066,3.4973302,9.432556
1740493962604,1.2138603,3.5152867,9.441534
1740493962607,1.2916719,3.555988,9.403227
1740493962611,1.364695,3.5464113,9.397242
1740493962616,1.4437037,3.5535939,9.442133
1740493962621,1.5059528,3.5607765,9.430161
1740493962626,1.5370775,3.5727475,9.41041
1740493962630,1.536479,3.5452142,9.413403
1740493962636,1.5167267,3.5338416,9.427169
1740493962641,1.4431051,3.4853592,9.495404
1740493962651,1.3682863,3.4805708,9.548675
1740493962651,1.3401544,3.4805708,9.5732155
1740493962659,1.2862848,3.4644098,9.574412
1740493962661,1.2192472,3.429694,9.506777
1740493962665,1.1851299,3.4045548,9.528324
1740493962670,1.1414356,3.3357215,9.528923
1740493962675,1.1318588,3.309984,9.612122
1740493962680,1.127669,3.3315318,9.561843
1740493962685,1.1713632,3.364452,9.464279
1740493962692,1.2725182,3.3859997,9.363124
1740493962695,1.3808558,3.4159272,9.282919
1740493962700,1.4975731,3.401562,9.21229
1740493962705,1.6035166,3.4207156,9.1829605
1740493962710,1.6142905,3.4476504,9.101558
1740493962715,1.3198037,3.50571,8.908226
1740493962720,1.632247,3.4356794,9.152434
1740493962725,1.8590976,3.359065,9.279925
1740493962730,1.9303252,3.2704794,9.344569
1740493962735,2.0081367,3.2387564,9.306262
1740493962740,2.022502,3.2435448,9.244612
1740493962745,2.0123265,3.2836475,9.300277
1740493962749,1.9877859,3.306991,9.506777
1740493962754,1.91596,3.306991,9.734225
1740493962760,1.8339585,3.271078,9.858724
1740493962765,1.7681179,3.25791,9.923966
1740493962770,1.7399861,3.244742,9.91798
1740493962776,1.7998412,3.2154129,9.882666
1740493962779,1.8309658,3.2130187,9.888053
1740493962785,1.8531121,3.1741128,9.955689
1740493962796,1.8471266,3.1848867,9.964667
1740493962796,1.8022354,3.193865,9.968858
1740493962800,1.7729063,3.1878796,9.910798
1740493962805,1.7256209,3.2118216,9.927557
1740493962809,1.7124528,3.2208,9.884461
1740493962814,1.7459716,3.2243912,9.866506
1740493962819,1.8243817,3.2357635,9.859323
1740493962824,1.9129672,3.2746694,9.92636
1740493962829,2.0548236,3.494936,9.956886
1740493962834,2.0602105,3.6936548,9.881469
1740493962839,2.171541,3.5745432,9.774927
1740493962844,2.3211784,3.3979707,9.746795
1740493962849,2.369661,3.2986114,9.653421
1740493962854,2.3714569,3.264494,9.54209
1740493962858,2.3145945,3.2249897,9.459491
1740493962864,2.2182279,3.192668,9.451111
1740493962868,2.1188686,3.1477766,9.532514
1740493962874,1.9913772,3.1465795,9.60015
1740493962879,1.8710686,3.2267854,9.634268
1740493962883,1.7603368,3.3105824,9.688137
1740493962888,1.650802,3.3824084,9.693524
1740493962894,1.5580268,3.3722332,9.77792
1740493962899,1.4616601,3.3237505,9.74859
1740493962904,1.3156139,3.181894,9.631873
1740493962908,1.2449849,3.0250738,9.421184
1740493962914,1.1067197,2.908955,9.28232
1740493962919,0.94810385,2.783858,9.186552
1740493962924,0.86011696,2.6144683,9.18715
1740493962928,0.7433996,2.472612,9.290101
1740493962934,0.66738373,2.44448,9.384672
1740493962939,0.66139823,2.554613,9.422979
1740493962944,0.6488287,2.7688942,9.503185
1740493962948,0.6745663,2.9131448,9.626487
1740493962954,0.6979098,3.0011318,9.8042555
1740493962961,0.6937199,3.039439,9.850345
1740493962963,0.641646,3.0765493,9.810242
1740493962969,0.60573304,3.056797,9.697116
1740493962976,0.5363012,3.0071173,9.665392
1740493962978,0.44472298,2.9819782,9.588778
1740493962984,0.43155485,2.9825768,9.490017
1740493962988,0.3776853,3.1591492,9.4295635
1740493962994,0.29269117,3.268684,9.349358
1740493962999,0.23822308,3.2866404,9.279925
1740493963003,0.16519992,3.2908301,9.172187
1740493963009,0.13826515,3.2519245,9.056666
1740493963013,0.11851298,3.196858,8.991425
1740493963019,0.010175358,3.1932666,8.902839
1740493963023,-0.035913024,3.1962593,8.876503
1740493963028,-0.02932897,3.176507,8.941745
1740493963033,0.02633622,3.063381,9.043498
1740493963038,0.09876082,2.942474,9.15842
1740493963044,0.16699557,2.7844565,9.268554
1740493963046,0.1921347,2.5504234,9.276933
1740493963053,0.26874915,2.3002293,9.41041
1740493963058,0.36631286,2.1643584,9.625289
1740493963063,0.40162733,2.1428106,9.859921
1740493963067,0.338181,2.3092074,9.873089
1740493963072,0.23283611,2.5516205,9.815628
1740493963078,0.207697,2.7641058,9.871892
1740493963082,0.21547815,2.8724434,9.996989
1740493963087,0.18495208,2.9897594,10.1621895
1740493963093,0.18495208,3.0639796,10.199299
1740493963097,0.17657238,3.1244333,10.172364
1740493963102,0.11671733,3.1346085,10.0029745
1740493963107,0.020350715,3.0873232,9.913791
1740493963111,-0.04070143,2.9628246,9.939528
1740493963116,-0.08140286,2.7934349,9.991004
1740493963121,-0.12868834,2.657564,10.079589
1740493963126,-0.12868834,2.657564,10.079589
1740493963131,-0.17118542,2.5767596,10.270527
1740493963136,-0.18016368,2.5222914,10.609306
1740493963141,-0.14844051,2.554613,10.933122
1740493963151,-0.091578215,2.5893292,11.164163
1740493963152,0.0035913025,2.6024973,11.275493
1740493963156,0.08798691,2.517503,11.2844715
1740493963161,0.3238158,2.6192567,11.32218
1740493963165,0.5255273,2.8580782,11.399991
1740493963172,0.39324763,2.8724434,11.18152
1740493963176,0.260968,2.837129,11.08276
1740493963181,0.05686229,2.854487,10.8469305
1740493963187,-0.12569559,2.9131448,10.641628
1740493963193,-0.16101007,2.8682537,10.386645
1740493963194,-0.0676362,2.8048072,10.096947
1740493963202,0.011971008,2.7862523,9.871294
1740493963205,0.0023942017,2.8293478,9.703699
1740493963210,-0.08140286,2.8951883,9.667787
1740493963217,-0.0796072,2.9041667,9.832987
1740493963221,-0.010175358,2.939481,10.009559
1740493963227,0.13826515,2.9783869,10.344747
1740493963231,0.3453636,2.9759927,10.751761
1740493963235,0.47345337,3.0142999,11.1899
1740493963241,0.480636,3.1040826,11.641207
1740493963247,0.50038815,3.301604,11.53706
1740493963249,0.58657944,3.3028011,11.581951
1740493963255,0.56084174,2.9502552,11.896789
1740493963260,0.45968673,2.5222914,12.473192
1740493963266,0.35314476,2.1739352,13.03583
1740493963271,0.30466217,1.988983,13.511678
1740493963276,0.19931729,2.180519,13.51467
1740493963279,0.017357962,2.4732103,13.221979
1740493963284,-0.076614454,2.6443958,12.692262
1740493963289,0.142455,2.4791958,11.394605
1740493963296,0.9828198,1.9189527,10.08318
1740493963299,1.8626889,1.2635399,11.285069
1740493963304,1.8962077,0.9211691,12.593501
1740493963310,1.5729905,0.85891986,13.136386
1740493963315,1.2862848,1.086369,13.778032
1740493963319,0.88046765,1.4718355,14.411299
1740493963325,0.46327803,1.7310078,14.836269
1740493963330,0.19572599,1.6807296,14.913483
1740493963335,0.08798691,1.3850456,14.747684
1740493963339,0.09696517,1.0444705,14.388554
1740493963345,0.034715924,0.88944596,13.874399
1740493963349,-0.09636662,0.9672575,13.427281
1740493963355,-0.21188685,1.2042835,13.170504
1740493963360,-0.23642741,1.4490906,12.996924
1740493963364,-0.21428105,1.6154876,12.905346
1740493963369,-0.15682021,1.7687165,12.740745
1740493963374,-0.16160862,1.8806454,12.695254
1740493963379,-0.2184709,1.9865888,12.827534
1740493963384,-0.27593175,2.0638018,13.071743
1740493963388,-0.2801216,2.0883424,13.369821
1740493963395,-0.34356794,2.0093338,13.588292
1740493963398,-0.4854244,1.8722657,13.6972275
1740493963403,-0.64583594,1.7154455,13.769054
1740493963414,-0.7404069,1.5592239,13.739126
1740493963415,-0.7697359,1.4466964,13.682264
1740493963422,-0.78050977,1.4275428,13.495517
1740493963423,-0.7763199,1.407192,13.2752495
1740493963428,-0.7445967,1.4065934,13.096882
1740493963433,-0.729633,1.501763,12.865243
1740493963437,-0.7589619,1.5711949,12.566566
1740493963443,-0.75357497,1.6496049,12.26789
1740493963449,-0.78529817,1.6938977,12.002133
1740493963454,-0.7398083,1.7417817,11.746552
1740493963458,-0.66139823,1.809418,11.447277
1740493963463,-0.55126494,1.8914193,11.018715
1740493963469,-0.4357447,1.9231426,10.543466
1740493963473,-0.3776853,1.9764135,10.140042
1740493963478,-0.34476504,2.0775685,9.7324295
1740493963487,-0.7086837,2.5863364,9.139865
1740493963488,-0.35553896,2.586935,8.665813
1740493963494,-0.019153614,2.5510218,8.717887
1740493963496,0.15023616,2.5240872,8.746617
1740493963502,0.29209262,2.3594859,8.629301
1740493963507,0.34715924,2.2451627,8.346188
1740493963513,0.415394,2.0841527,8.098986
1740493963518,0.38367084,2.0638018,8.029554
1740493963522,0.23523031,2.19249,8.0445175
1740493963527,0.031124622,2.4013844,8.073847
1740493963532,-0.20649989,2.658761,8.156446
1740493963537,-0.44592008,2.8335378,8.1881695
1740493963542,-0.6865373,2.9257145,8.118139
1740493963547,-0.88166475,2.9137435,8.01878
1740493963552,-1.0450691,2.878429,7.9427643
1740493963557,-1.174356,2.842516,7.9667063
1740493963562,-1.2808979,2.7611132,8.043321
1740493963567,-1.3299791,2.6910827,8.08462
1740493963572,-1.3533225,2.6300306,8.178593
1740493963577,-1.3611037,2.5719712,8.261791
1740493963581,-1.3670892,2.52289,8.369531
1740493963586,-1.3545196,2.4893713,8.461707
1740493963591,-1.2791022,2.4690206,8.556278
1740493963595,-1.1180922,2.432509,8.667608
1740493963601,-0.96665895,2.4067712,8.904634
1740493963605,-0.8583213,2.4522612,9.126697
1740493963612,-0.81283146,2.5629928,9.216479
1740493963615,-0.74639237,2.6629508,9.128492
1740493963620,-0.6853402,2.7605145,8.990826
1740493963625,-0.5805939,2.861071,8.879496
1740493963631,-0.45669398,2.9520507,8.720282
1740493963635,-0.40641573,3.0424318,8.55987
1740493963640,-0.40821138,3.1729157,8.364742
1740493963646,-0.46028528,3.365649,8.22528
1740493963656,-0.6159084,3.9282866,8.175002
1740493963657,-0.83497787,4.1802764,8.144476
1740493963661,-0.878672,4.033033,8.1480665
1740493963666,-0.6596026,3.9737763,8.260594
1740493963671,-0.7194576,3.6062663,7.835025
1740493963676,-0.75596917,3.2225955,7.7410526
1740493963681,-0.81522566,3.1717186,7.9313917
1740493963684,-0.88286185,3.6164417,8.149264
1740493963689,-0.85772276,3.6248214,8.303091
1740493963695,-0.8619126,3.2980127,8.577228
1740493963700,-0.8822633,2.9412768,8.791509
1740493963704,-0.8475474,3.0041246,8.87351
1740493963709,-0.7350199,3.41473,8.795698
1740493963714,-0.75956047,3.6912606,8.558074
1740493963719,-0.8571242,3.7241807,8.491635
1740493963724,-0.9068039,3.6565444,8.623915
1740493963730,-0.8678981,3.5685577,8.721478
1740493963734,-0.7930793,3.4063504,8.737639
1740493963739,-0.7092823,3.245939,8.659229
1740493963744,-0.5979519,3.0561984,8.67539
1740493963749,-0.47105917,2.947861,8.752603
1740493963754,-0.24660277,2.8431146,8.926183
1740493963759,-0.019153614,2.7868507,9.051279
1740493963764,0.17776948,2.734777,9.046491
1740493963769,0.30526072,2.7377696,9.0794115
1740493963773,0.41479546,2.7748797,9.160215
1740493963779,0.45908818,2.9107506,9.267356
1740493963783,0.4890157,3.0801406,9.320627
1740493963788,0.4950012,3.2609026,9.40203
1740493963797,0.5201403,3.5218706,9.492412
1740493963798,0.51475334,3.6864722,9.624092
1740493963803,0.504578,3.8043866,9.70789
1740493963808,0.50637364,3.8732197,9.746795
1740493963813,0.48961425,3.8540661,9.694122
1740493963818,0.39683893,3.7421372,9.592968
1740493963824,0.24540567,3.6373909,9.522339
1740493963830,0.020949265,3.5500026,9.448717
1740493963834,-0.2621651,3.4883518,9.356541
1740493963838,-0.5614403,3.5482068,9.223662
1740493963843,-0.9068039,3.7355533,9.144653
1740493963848,-1.2437878,4.0054994,9.117719
1740493963853,-1.5424645,4.244321,9.173983
1740493963858,-1.714847,4.4035354,9.236232
1740493963863,-1.7938557,4.470573,9.370307
1740493963869,-1.7794905,4.4502225,9.599552
1740493963873,-1.678934,4.398747,9.858126
1740493963878,-1.5280992,4.3897686,10.116699
1740493963883,-1.4083891,4.586692,10.220248
1740493963888,-1.2198458,4.6022544,10.560823
1740493963894,-0.9804256,4.5040917,10.890026
1740493963899,-0.75118077,4.408922,11.151593
1740493963903,-0.55006784,4.3544545,11.344326
1740493963908,-0.36511576,4.3646297,11.4837885
1740493963913,-0.18195933,4.437054,11.600506
1740493963917,0.010773907,4.4544125,11.806407
1740493963923,0.10474633,4.630386,11.841722
1740493963928,0.22924481,4.7764325,11.868058
1740493963932,0.5770026,4.6232033,11.900379
1740493963937,0.9044097,4.373608,11.906365
1740493963943,1.18094,4.2102036,11.828553
1740493963947,1.4544775,4.11683,11.692682
1740493963952,1.650802,4.0701427,11.500547
1740493963957,1.774702,3.9917328,11.353903
1740493963963,1.846528,3.918111,11.128249
1740493963967,1.9243397,3.845088,10.940904
1740493963972,1.977012,3.775656,10.778696
1740493963977,1.9961656,3.752911,10.605117
1740493963983,1.9183542,3.804985,10.505757
1740493963987,1.7567455,3.9588125,10.425551
1740493963992,1.5897499,4.096479,10.399814
1740493963996,1.3964181,4.207211,10.419566
1740493964002,1.264737,4.2610803,10.501567
1740493964007,1.1797429,4.252701,10.547656
1740493964011,1.1420342,4.2281604,10.535086
1740493964016,1.1354501,4.11264,10.570999
1740493964021,1.1348516,4.0276456,10.649409
1740493964031,1.1569979,3.982156,10.706271
1740493964032,1.2198458,3.9552212,10.779893
1740493964034,1.3120226,3.8863878,10.879252
1740493964041,1.4454993,3.8774097,10.975619
1740493964047,1.6244658,3.83192,11.018715
1740493964051,1.8926164,3.7732618,11.107899
1740493964056,2.1769278,3.690662,11.171944
1740493964061,2.486977,3.6194344,11.171345
1740493964066,2.7341783,3.5619736,11.139622
1740493964071,2.9167361,3.478775,11.108498
1740493964076,3.1064768,3.435081,11.047445
1740493964081,3.2196028,3.3758245,10.978013
1740493964086,3.2674868,3.321955,10.91337
1740493964090,3.2549171,3.2585084,10.778097
1740493964096,3.2279825,3.208829,10.657789
1740493964101,3.168726,3.168726,10.617087
1740493964106,3.0873232,3.2028434,10.585364
1740493964110,2.9813797,3.2357635,10.538677
1740493964115,2.8383262,3.2477345,10.436325
1740493964120,2.6635494,3.2393548,10.307637
1740493964126,2.5246856,3.276465,10.119094
1740493964130,2.484583,3.3315318,9.972448
1740493964136,2.4827871,3.413533,9.737817
1740493964140,2.4821887,3.4231098,9.627085
1740493964145,2.532467,3.425504,9.547478
1740493964179,2.5360582,3.4284968,9.396643
1740493964183,2.5360582,3.4739866,9.234436
1740493964183,2.5462334,3.4901476,9.090185
1740493964184,2.5605986,3.520075,9.032724
1740493964184,2.5821466,3.5404258,8.892065
1740493964184,2.6300306,3.5338416,8.799889
1740493964184,2.6719291,3.4823663,8.644265
1740493964185,2.6982653,3.4213142,8.479664
1740493964195,2.6743233,3.3488896,8.305486
1740493964195,2.6330233,3.293823,8.158841
1740493964209,2.5905263,3.2423477,7.9421654
1740493964209,2.5342624,3.198055,7.800309
1740493964209,2.4612393,3.145981,7.621941
1740493964218,2.4121583,3.145981,7.4854717
1740493964218,2.3624785,3.1717186,7.368156
1740493964257,2.2852654,3.1902738,7.2993226
1740493964257,2.2092497,3.2261868,7.2233067
1740493964257,2.1577742,3.2483332,7.153276
1740493964258,2.0817583,3.2692823,7.0970125
1740493964258,1.9812019,3.2908301,7.092224
1740493964258,1.8848352,3.3081882,7.1371155
1740493964259,1.8166006,3.311181,7.177817
1740493964259,1.7950528,3.3363202,7.2699933
1740493964262,1.751957,3.329736,7.32506
1740493964268,1.7375919,3.3093853,7.445369
1740493964275,1.6932992,3.305794,7.548918
1740493964276,1.6831238,3.2986114,7.6285253
1740493964282,1.6711528,3.269881,7.7811556
1740493964286,1.654992,3.2202013,7.900267
1740493964291,1.6358383,3.1759086,8.041525
1740493964296,1.5795746,3.2291796,8.046912
1740493964302,1.513734,3.2255883,7.9445596
1740493964306,1.5095441,3.1812954,7.867945
1740493964311,1.5472529,3.117849,7.8206596
1740493964321,1.578976,3.0992942,7.741651
1740493964321,1.5693992,3.093907,7.6333137
1740493964327,1.5358804,3.1136594,7.4866686
1740493964335,1.4598645,3.1693244,7.365163
1740493964336,1.4209588,3.1908724,7.2406645
1740493964342,1.3988123,3.1932666,7.0886326
1740493964346,1.3401544,3.2249897,7.025785
1740493964353,1.2467805,3.2890346,7.0168066
1740493964358,1.1210849,3.3530796,7.0515227
1740493964361,0.9900024,3.4231098,7.009624
1740493964366,0.8738836,3.50571,7.049727
1740493964371,0.7954735,3.5757403,7.091625
1740493964376,0.7332243,3.642778,7.1514807
1740493964387,0.7344214,3.7074213,7.2221093
1740493964388,0.7445967,3.8055837,7.323863
1740493964391,0.79008657,3.9444473,7.426215
1740493964396,0.8439561,4.063559,7.4992385
1740493964403,0.9223662,4.1515455,7.5770497
1740493964405,1.0061632,4.258686,7.65127
1740493964410,1.1139023,4.3676224,7.8092875
1740493964420,1.1767502,4.446631,7.9505453
1740493964421,1.2354081,4.554969,8.08881
1740493964425,1.2479776,4.6950297,8.136096
1740493964430,1.2312182,4.799177,8.213309
1740493964436,1.1899183,4.8722005,8.273164
1740493964441,1.1755531,4.955399,8.323442
1740493964445,1.1887212,5.016451,8.432977
1740493964453,1.2425907,5.0763063,8.496424
1740493964455,1.2922704,5.1343656,8.629301
1740493964460,1.3383588,5.2002063,8.692748
1740493964470,1.3479356,5.2768207,8.815451
1740493964470,1.3239936,5.3378725,8.915408
1740493964475,1.3084313,5.409699,9.023148
1740493964480,1.271321,5.477335,9.1272955
1740493964487,1.22224,5.514445,9.255983
1740493964489,1.1474211,5.5150437,9.419388
1740493964495,1.0588357,5.480926,9.531317
1740493964510,0.9564836,5.4527946,9.670779
1740493964511,0.8678981,5.4043117,9.846753
1740493964511,0.7703344,5.3516393,10.044873
1740493964514,0.66379243,5.3079453,10.274118
1740493964521,0.55964464,5.249287,10.526108
1740493964524,0.4381389,5.1882353,10.813412
1740493964529,0.3537433,5.134964,11.139622
1740493964534,0.26036942,5.033809,11.414955
1740493964539,0.18195933,4.9524064,11.556213
1740493964544,0.10354923,4.8105497,11.724405
1740493964552,0.04369418,4.699818,11.857284
1740493964554,-0.035314474,4.623802,11.911154
1740493964559,-0.11791443,4.583101,11.9297085
1740493964564,-0.19871874,4.5603557,11.921927
1740493964570,-0.2148796,4.495114,11.877036
1740493964573,-0.19692309,4.474763,11.845911
1740493964579,-0.17836803,4.4424415,11.793838
1740493964588,-0.108936176,4.4059296,11.739968
1740493964589,-0.015562311,4.3568487,11.662156
1740493964593,0.048482586,4.3448777,11.579556
1740493964599,0.078410104,4.359243,11.532271
1740493964605,0.0700304,4.3718123,11.490373
1740493964608,0.023942016,4.4298716,11.395802
1740493964613,-0.032920275,4.485537,11.325771
1740493964620,-0.12090719,4.5406036,11.384429
1740493964623,-0.2088941,4.537012,11.589732
1740493964628,-0.31543607,4.498705,11.887212
1740493964636,-0.39025488,4.390966,12.256517
1740493964637,-0.5374983,4.279037,12.6222315
1740493964642,-0.64703304,4.1395745,13.034633
1740493964647,-0.7116765,3.9869444,13.488334
1740493964654,-0.777517,3.8031895,13.93186
1740493964676,-0.8379706,3.6206315,14.311939
1740493964677,-0.8912416,3.5098996,14.601638
1740493964677,-0.9636662,3.3979707,14.742297
1740493964678,-1.0336965,3.2740707,14.766239
1740493964678,-1.1186907,3.1501708,14.649522
1740493964685,-1.1713632,3.0214825,14.451402
1740493964687,-1.2126632,2.930503,14.122797
1740493964692,-1.2156559,2.8844144,13.678673
1740493964697,-0.34596214,2.1140802,13.228563
1740493964702,-0.60573304,2.0518308,13.375208
1740493964707,-1.6136919,2.9251158,12.541427
1740493964712,-1.6292542,3.3028011,10.412383
1740493964717,-1.5077485,3.3452983,9.630676
1740493964721,-1.632247,3.2273839,9.785102
1740493964727,-1.6490064,3.0556,9.360131
1740493964732,-1.5370775,2.9149406,8.685565
1740493964737,-1.6142905,2.9765913,8.200739
1740493964742,-1.4909891,3.1681273,7.9792757
1740493964747,-1.471237,3.0747535,7.7853456
1740493964782,-1.6328455,3.052607,7.723695
1740493964785,-1.8243817,3.1519666,7.727885
1740493964785,-1.8632874,3.2004492,7.6746135
1740493964785,-1.7711107,3.277662,7.8128786
1740493964786,-1.5197195,3.8899791,8.739435
1740493964786,-1.1935096,4.0557775,9.163807
1740493964786,-1.0366893,3.7535098,9.147646
1740493964787,-1.1665748,3.5571852,8.929175
1740493964792,-1.1671734,3.5284548,8.476671
1740493964795,-0.94331545,3.555988,7.9086466
1740493964806,-0.7308301,3.5122938,7.551312
1740493964806,-0.62728083,3.3399115,7.4681134
1740493964810,-0.48602295,3.0550013,7.505822
1740493964815,-0.35553896,2.771887,7.5566993
1740493964820,-0.35553896,2.771887,7.5566993
1740493964825,-0.35553896,2.5881321,7.6189485
1740493964830,-0.39743748,2.4911668,7.60578
1740493964835,-0.5141548,2.4983494,7.5962033
1740493964840,-0.7236475,2.5671828,7.45734
1740493964845,-0.95349085,2.7060466,7.393295
1740493964850,-1.0785879,2.7856536,7.319673
1740493964855,-1.1821371,2.8658595,7.3148847
1740493964859,-1.4041992,2.9580362,7.340024
1740493964866,-1.5652094,3.0789435,7.3059063
1740493964871,-1.7136499,3.1974564,7.265804
1740493964876,-1.9758149,3.457826,7.1407065
1740493964881,-1.9758149,3.457826,7.1407065
1740493964885,-1.970428,3.5087025,7.1945763
1740493964890,-1.8429368,3.518878,7.3322425
1740493964896,-1.6089035,3.493739,7.4256167
1740493964901,-1.3628993,3.378817,7.4166384
1740493964905,-1.1121067,3.244742,7.4992385
1740493964910,-0.94092125,3.1585505,7.654263
1740493964916,-0.789488,3.1196449,7.851186
1740493964920,-0.6937199,3.1190462,7.9996266
1740493964926,-0.65660983,3.1573534,8.165425
1740493964930,-0.6051345,3.1812954,8.32045
1740493964935,-0.55365914,3.1723173,8.504803
1740493964940,-0.56203884,3.1735144,8.619724
1740493964945,-0.5883751,3.1741128,8.72088
1740493964949,-0.6242881,3.1783028,8.7292595
1740493964954,-0.6631939,3.265691,8.734048
1740493964959,-0.7062895,3.3369186,8.693346
1740493964964,-0.75357497,3.4201171,8.67958
1740493964969,-0.7661445,3.5087025,8.683769
1740493964974,-0.6847417,3.5631707,8.618527
1740493964979,-0.5734113,3.582923,8.583213
1740493964984,-0.4973954,3.6361938,8.510789
1740493964989,-0.46866497,3.7020345,8.445546
1740493964994,-0.44771573,3.7989995,8.438364
1740493964999,-0.38726214,3.8762126,8.503606
1740493965004,-0.3286042,3.9205053,8.616134
1740493965009,-0.25977087,3.8708255,8.835801
1740493965014,-0.13467385,3.8067808,9.155427
1740493965018,0.048482586,3.751714,9.408015
1740493965023,0.2124854,3.788824,9.606135
1740493965028,0.34715924,3.852869,9.810242
1740493965035,0.47105917,3.916914,9.992201
1740493965038,0.5554548,3.9366663,10.2417965
1740493965044,0.6218939,3.9360676,10.519524
1740493965053,0.65780693,3.9725792,10.702681
1740493965057,0.7332243,4.009091,10.869077
1740493965059,0.8218097,4.0162735,11.0061455
1740493965063,0.9056068,4.0563765,11.195886
1740493965068,0.95947635,4.107253,11.340137
1740493965073,1.0875661,4.1144357,11.502942
1740493965078,1.1851299,4.0892963,11.656171
1740493965083,1.2695254,4.100669,11.684901
1740493965088,1.3491327,4.098873,11.693281
1740493965093,1.4413095,4.0683475,11.729194
1740493965097,1.5562311,3.9947255,11.799823
1740493965102,1.6819267,3.9522285,11.768699
1740493965107,1.7357962,3.958214,11.65677
1740493965113,1.7166426,3.945046,11.537658
1740493965118,1.7286136,3.9947255,11.412561
1740493965123,1.7196354,4.020463,11.304223
1740493965127,1.7585411,4.07134,11.16117
1740493965133,1.8130093,4.0904937,10.997167
1740493965137,1.8596961,4.1317935,10.815806
1740493965144,1.8890251,4.135385,10.626664
1740493965147,1.958457,4.1383777,10.474034
1740493965153,2.0165164,4.1461587,10.313024
1740493965163,2.0919337,4.1665096,10.21965
1740493965163,2.1511903,4.1940427,10.0825815
1740493965167,2.1978772,4.228759,9.928755
1740493965173,2.2224178,4.26946,9.840169
1740493965176,2.2720973,4.292804,9.779117
1740493965181,2.3265655,4.326921,9.730635
1740493965186,2.4103625,4.32333,9.774927
1740493965191,2.508525,4.372411,9.813833
1740493965198,2.5983074,4.4274774,9.913791
1740493965206,2.7012582,4.4597993,10.10413
1740493965207,2.8365304,4.4448357,10.348338
1740493965213,2.9759927,4.4807487,10.623672
1740493965216,3.083732,4.473566,10.95467
1740493965220,3.1555579,4.470573,11.201273
1740493965225,3.198055,4.406528,11.410766
1740493965231,3.1381998,4.3275194,11.518504
1740493965235,3.0603883,4.245518,11.633426
1740493965240,2.9418752,4.132392,11.625645
1740493965246,2.7814639,4.0372224,11.626244
1740493965251,2.6396074,3.9252937,11.581951
1740493965258,2.4929626,3.8391025,11.424532
1740493965261,2.3355439,3.7816415,11.283873
1740493965267,2.202067,3.74094,11.16955
1740493965274,2.0961237,3.709217,11.011532
1740493965275,2.0242975,3.6888664,10.8624935
1740493965281,1.9746178,3.6750996,10.726623
1740493965286,2.0027497,3.6332011,10.621876
1740493965291,2.0524294,3.627814,10.44231
1740493965296,2.0751743,3.6445735,10.178948
1740493965301,2.1098902,3.667917,9.999383
1740493965306,2.15538,3.705027,9.854534
1740493965311,2.2361844,3.74094,9.595961
1740493965316,2.3157916,3.781043,9.366715
1740493965321,2.4277205,3.819949,9.151836
1740493965326,2.5145104,3.8426938,8.938153
1740493965331,2.6420016,3.8696284,8.763377
1740493965335,2.7647045,3.8851907,8.646061
1740493965340,2.907758,3.9390604,8.517971
1740493965345,3.019687,3.9606082,8.356362
1740493965350,3.0909145,3.9797618,8.217499
1740493965354,3.1854854,3.9797618,8.091205
1740493965359,3.217807,3.9630024,8.0127945
1740493965364,3.2016463,3.9372647,7.8715367
1740493965369,3.1250317,3.9013517,7.6387005
1740493965374,3.0663738,3.8241386,7.441179
1740493965379,2.9484594,3.776853,7.225102
1740493965384,2.7820623,3.7594953,7.0144124
1740493965389,2.5965118,3.7253778,6.9144545
1740493965395,2.385822,3.7313633,6.807314
1740493965399,2.1859062,3.7576995,6.659472
1740493965405,1.9608512,3.787627,6.509236
1740493965410,1.7705121,3.8139634,6.3967085
1740493965414,1.6448165,3.7948096,6.3464303
1740493965419,1.809418,3.6529531,6.38773
1740493965424,1.5508442,3.7283707,6.3751607
1740493965429,1.3245921,3.879804,6.357204
1740493965434,1.1546037,4.099472,6.3087215
1740493965439,1.1001357,4.3089647,6.371569
1740493965444,1.2563573,4.0264487,6.587646
1740493965449,1.3198037,3.8109705,6.7845693
1740493965454,1.3634979,3.6457705,6.8198833
1740493965459,1.3862427,3.6116533,6.747459
1740493965464,1.3617022,3.7415388,6.6726403
1740493965469,1.3066356,3.8630445,6.7630215
1740493965474,1.2659341,3.9588125,6.8210807
1740493965479,1.2551602,4.0156746,6.8450227
1740493965483,1.2599486,4.031237,6.825869
1740493965488,1.2563573,4.0174704,6.782175
1740493965494,1.1971009,3.9600096,6.7360864
1740493965498,1.1139023,3.9552212,6.707356
1740493965503,1.0133458,3.9743748,6.7109475
1740493965508,0.87927055,4.016872,6.721721
1740493965513,0.7649474,4.1054573,6.7145386
1740493965518,0.6805518,4.1665096,6.7863646
1740493965523,0.5835867,4.2784386,6.819285
1740493965528,0.5231331,4.3819876,6.859388
1740493965533,0.54168814,4.453215,7.019799
1740493965538,0.62728083,4.473566,7.1766195
1740493965543,0.7751228,4.4328647,7.4016747
1740493965548,0.92535895,4.404134,7.656657
1740493965553,1.0247183,4.395156,7.903858
1740493965557,1.0749966,4.4340615,8.112154
1740493965562,1.1444284,4.507085,8.23366
1740493965568,1.2066777,4.5561657,8.353969
1740493965573,1.2521675,4.6058455,8.480263
1740493965577,1.270124,4.622605,8.5862055
1740493965582,1.2545617,4.6579194,8.615535
1740493965588,1.2216414,4.653131,8.593389
1740493965593,1.1779473,4.6680946,8.6299
1740493965597,1.0893618,4.7123876,8.649054
1740493965602,0.96426475,4.791396,8.599973
1740493965607,0.84694886,4.8620253,8.531139
1740493965612,0.7134721,4.905121,8.48984
1740493965617,0.55365914,4.9661727,8.3629465
1740493965622,0.427365,5.007473,8.322245
1740493965627,0.31483752,5.063138,8.276755
1740493965632,0.19273324,5.137358,8.285733
1740493965636,0.16819267,5.1846437,8.352771
1740493965641,0.17477672,5.239112,8.516774
1740493965647,0.1945289,5.2780175,8.714295
1740493965651,0.23044191,5.28939,8.877101
1740493965656,0.30346507,5.2840033,9.109339
1740493965663,0.39085343,5.3103395,9.48044
1740493965666,0.46387658,5.333683,9.730036
1740493965671,0.52133745,5.386954,10.043676
1740493965676,0.533907,5.427655,10.314221
1740493965682,0.5279215,5.4504004,10.637438
1740493965686,0.51834464,5.467758,10.9343195
1740493965691,0.4866215,5.4605756,11.304223
1740493965696,0.4369418,5.4521956,11.637616
1740493965701,0.41599256,5.422867,11.959038
1740493965706,0.3842694,5.366603,12.319365
1740493965711,0.34356794,5.2768207,12.609063
1740493965716,0.2813187,5.157709,12.962807
1740493965721,0.18375498,5.0601454,13.288418
1740493965725,0.094570965,4.9667716,13.434464
1740493965730,-0.006584055,4.8859673,13.467384
1740493965736,-0.08080431,4.8458643,13.4260845
1740493965740,-0.14844051,4.811747,13.292009
1740493965746,-0.17298107,4.8243165,13.107656
1740493965750,-0.14544775,4.8297033,12.852075
1740493965755,-0.06943185,4.8422728,12.4947405
1740493965761,0.037110128,4.8506527,12.173917
1740493965766,0.15861586,4.876989,11.756727
1740493965770,0.21787235,4.927267,11.449073
1740493965776,0.24121583,5.0116625,11.155185
1740493965780,0.22266077,5.068525,10.894217
1740493965786,0.17417817,5.1301756,10.729016
1740493965790,0.0664391,5.139154,10.594342
1740493965796,-0.089184016,5.1439424,10.631453
1740493965800,-0.2896984,5.141548,10.773309
1740493965810,-0.46567222,5.0960584,11.060015
1740493965811,-0.6063316,4.9919105,11.452663
1740493965816,-0.729633,4.8536453,11.926117
1740493965820,-0.82719666,4.653131,12.406155
1740493965826,-0.8900445,4.4915223,12.86644
1740493965830,-0.9223662,4.299388,13.244724
1740493965835,-0.90500826,4.107253,13.570335
1740493965842,-0.80564886,3.9031472,13.823522
1740493965847,-0.7170634,3.7553053,13.888165
1740493965865,-0.61770403,3.6224272,13.794791
1740493965868,-0.545878,3.5272577,13.549985
1740493965869,-0.5506664,3.445855,13.186665
1740493965869,-0.5710171,3.429694,12.764687
1740493965870,-0.61291564,3.4476504,12.191874
1740493965873,-0.64942724,3.4715924,11.523293
1740493965877,-0.6757634,3.4685998,10.763134
1740493965883,-0.6895301,3.4392707,10.083779
1740493965888,-0.6691794,3.433884,9.432556
1740493965893,-0.688333,3.469797,8.805874
1740493965898,-0.682946,3.5404258,8.292317
1740493965903,-0.6775591,3.5835214,7.800309
1740493965907,-0.62728083,3.596091,7.41604
1740493965913,-0.5662287,3.626617,7.103596
1740493965917,-0.52612585,3.6314054,6.8653736
1740493965922,-0.52492875,3.6332011,6.779781
1740493965927,-0.49320555,3.6367924,6.8067155
1740493965932,-0.439336,3.6176388,6.909666
1740493965937,-0.39504328,3.6116533,7.1006036
1740493965943,-0.33758244,3.6343982,7.3112936
1740493965947,-0.22445641,3.6337996,7.4854717
1740493965953,-0.11312603,3.6343982,7.7201033
1740493965957,-0.004189853,3.5990837,7.904457
1740493965963,0.107140526,3.5637693,8.100781
1740493965967,0.22625206,3.5452142,8.3072815
1740493965972,0.31124622,3.514688,8.424597
1740493965977,0.3549404,3.5087025,8.511387
1740493965982,0.34955344,3.490746,8.48984
1740493965986,0.33279404,3.46022,8.426393
1740493965991,0.25677812,3.4452562,8.273164
1740493965996,0.16819267,3.4488475,8.098388
1740493966002,0.0688333,3.4494462,7.8835077
1740493966007,-0.06404489,3.4153287,7.643489
1740493966011,-0.2088941,3.3883939,7.450157
1740493966017,-0.35194764,3.371036,7.2550297
1740493966022,-0.46507367,3.3746274,7.0952168
1740493966026,-0.5446809,3.3883939,7.0449386
1740493966031,-0.5967548,3.3758245,7.03177
1740493966046,-0.62608373,3.3824084,7.03177
1740493966047,-0.63087213,3.3662477,7.120356
1740493966048,-0.6739678,3.3135753,7.2005615
1740493966051,-0.694917,3.2638955,7.3525934
1740493966055,-0.748188,3.2136173,7.4896617
1740493966061,-0.7882909,3.2106245,7.6135616
1740493966065,-0.8655039,3.229778,7.771579
1740493966070,-0.97384155,3.2716765,7.900267
1740493966075,-1.0217255,3.2902317,8.061277
1740493966080,-1.0564415,3.3135753,8.189367
1740493966085,-1.0241197,3.2968156,8.285135
1740493966090,-0.9708488,3.2956185,8.337808
1740493966096,-0.92296475,3.289633,8.382699
1740493966101,-0.8487445,3.3327289,8.397662
1740493966105,-0.78649527,3.3842041,8.372523
1740493966110,-0.6943185,3.465607,8.387487
1740493966115,-0.63087213,3.5350387,8.357559
1740493966121,-0.5590461,3.5966895,8.350377
1740493966125,-0.52971715,3.6457705,8.321048
1740493966130,-0.5267244,3.6936548,8.279149
1740493966135,-0.4950012,3.7588966,8.259995
1740493966141,-0.47046062,3.776853,8.273164
1740493966145,-0.4321534,3.8019924,8.323442
1740493966150,-0.40102878,3.7960067,8.395866
1740493966155,-0.3728969,3.821146,8.494029
1740493966160,-0.35194764,3.83192,8.492832
1740493966172,-0.34117374,3.8672342,8.556278
1740493966174,-0.31603462,3.8708255,8.624513
1740493966175,-0.272939,3.8845923,8.716091
1740493966180,-0.24121583,3.8947675,8.774151
1740493966185,-0.18375498,3.9001546,8.842385
1740493966190,-0.1352724,3.892972,8.950125
1740493966204,-0.05207389,3.8744168,9.027337
1740493966205,-0.008379706,3.8474822,9.150639
1740493966205,0.01316811,3.8151605,9.213487
1740493966217,-0.0017956513,3.7547069,9.3026705
1740493966218,-0.048482586,3.74094,9.397242
1740493966218,-0.09816227,3.7152026,9.446921
1740493966231,-0.13946225,3.7193923,9.440936
1740493966232,-0.12868834,3.727772,9.585187
1740493966233,-0.08319851,3.7403417,9.764751
1740493966239,-0.022146367,3.751714,9.894637
1740493966244,0.023942016,3.7553053,10.108918
1740493966289,0.11133038,3.7457285,10.329185
1740493966289,0.17597382,3.7373488,10.575788
1740493966290,0.25258827,3.7074213,10.837953
1740493966290,0.2813187,3.6936548,11.062409
1740493966290,0.32202014,3.663727,11.258135
1740493966290,0.36511576,3.669114,11.380837
1740493966291,0.4225766,3.6780925,11.447277
1740493966291,0.5009867,3.6727054,11.476007
1740493966292,0.5835867,3.6721067,11.485584
1740493966296,0.6793547,3.6894648,11.455058
1740493966303,0.79128367,3.6978445,11.4041815
1740493966304,0.90021986,3.716998,11.382035
1740493966310,1.0013748,3.743933,11.326369
1740493966312,1.1246762,3.750517,11.203667
1740493966318,1.2455834,3.7594953,11.027095
1740493966323,1.347337,3.7792473,10.784681
1740493966327,1.4389153,3.7978024,10.5285015
1740493966333,1.5089456,3.8624458,10.316615
1740493966338,1.5867572,3.945046,10.096349
1740493966342,1.6771383,4.03004,9.903615
1740493966347,1.733402,4.119224,9.846154
1740493966353,1.8088194,4.1958385,9.802461
1740493966363,1.8770541,4.2515035,9.757569
1740493966364,1.910573,4.312556,9.765948
1740493966368,1.9339164,4.378995,9.848549
1740493966373,1.982399,4.460996,10.023325
1740493966379,2.03567,4.5298295,10.192716
1740493966382,2.099715,4.542998,10.468048
1740493966388,2.1739352,4.609437,10.761936
1740493966396,2.2732944,4.6686935,11.15279
1740493966397,2.393603,4.717176,11.56579
1740493966402,2.5450363,4.7746367,12.057798
1740493966407,2.6629508,4.7602715,12.546215
1740493966411,2.777274,4.7243586,12.97777
1740493966417,2.842516,4.6399627,13.288418
1740493966422,2.867655,4.55856,13.576321
1740493966429,2.825158,4.465186,13.779229
1740493966432,2.794632,4.313154,13.847464
1740493966437,2.7257986,4.1533413,13.827712
1740493966445,2.6515784,3.9438488,13.682264
1740493966446,2.5462334,3.7984009,13.402143
1740493966452,2.4462755,3.6613328,13.066955
1740493966458,2.2930467,3.5954924,12.596494
1740493966463,2.1523874,3.5613751,12.115858
1740493966467,2.0410569,3.5751417,11.607688
1740493966473,1.9482816,3.582923,11.122863
1740493966482,1.9045875,3.5697548,10.638037
1740493966483,1.9087774,3.5446155,10.16578
1740493966498,1.9231426,3.5128925,9.749189
1740493966499,1.9686323,3.4877534,9.399636
1740493966499,2.03567,3.490746,9.097966
1740493966501,2.134431,3.4985273,8.892065
1740493966507,2.134431,3.4985273,8.892065
1740493966514,2.2876596,3.5021186,8.703522
1740493966516,2.4498668,3.4925418,8.626308
1740493966521,2.5941176,3.4751837,8.554482
1740493966530,2.754529,3.4368765,8.583213
1740493966530,2.858677,3.359065,8.576629
1740493966536,2.949058,3.2878375,8.564658
1740493966541,2.984971,3.2333694,8.590396
1740493966546,2.9502552,3.1184478,8.629301
1740493966551,2.878429,3.0172927,8.620323
1740493966556,2.7389667,2.9149406,8.569447
1740493966563,2.5390508,2.8377275,8.519767
1740493966566,2.3127987,2.7940333,8.432977
1740493966570,2.0907366,2.7856536,8.277354
1740493966575,1.881244,2.7688942,8.189367
1740493966580,1.6681601,2.7820623,8.036138
1740493966585,1.5053543,2.7617116,7.8876977
1740493966590,1.3880384,2.7581203,7.745841
1740493966596,1.258153,2.7335799,7.5974007
1740493966600,1.1432313,2.7299886,7.48188
1740493966605,1.0594343,2.722806,7.367557
1740493966614,1.0121487,2.731784,7.277176
1740493966614,0.94331545,2.7766755,7.193379
1740493966620,0.919972,2.8293478,7.105392
1740493966625,0.93972415,2.8898015,7.016208
1740493966629,0.9259575,2.92751,6.911462
1740493966635,0.91458505,2.944868,6.7827735
1740493966639,0.9056068,3.007716,6.711546
1740493966646,0.9115923,3.044826,6.6882024
1740493966649,0.90979666,3.0897174,6.682217
1740493966655,0.9175778,3.1226375,6.7283053
1740493966663,0.92416185,3.1872811,6.7534447
1740493966675,0.9427169,3.2423477,6.809708
1740493966675,0.95229375,3.2740707,6.8863225
1740493966684,0.94690675,3.2908301,7.0024414
1740493966685,0.90740246,3.3369186,7.144298
1740493966685,0.87089086,3.3686419,7.2765775
1740493966689,0.8439561,3.4021606,7.392098
1740493966697,0.83138657,3.454833,7.518392
1740493966698,0.8523358,3.4781766,7.6321163
1740493966703,0.8403648,3.5045128,7.7506294
1740493966708,0.83737206,3.5368345,7.8128786
1740493966714,0.86490536,3.5631707,7.8613615
1740493966718,0.87328506,3.620033,7.909844
1740493966724,0.9355343,3.6523547,7.939771
1740493966730,1.021127,3.6888664,8.007407
1740493966734,1.0995371,3.74513,8.095394
1740493966738,1.1384429,3.7822402,8.139688
1740493966748,1.1605892,3.8283286,8.194156
1740493966748,1.1827357,3.915717,8.181585
1740493966753,1.2282255,3.9791632,8.171411
1740493966758,1.2605472,4.044405,8.140884
1740493966764,1.3018472,4.0827127,8.096592
1740493966768,1.3479356,4.143166,8.050503
1740493966773,1.3982137,4.189853,8.024766
1740493966779,1.4347254,4.197036,7.949348
1740493966782,1.4850036,4.2341456,7.93199
1740493966787,1.5412674,4.2880154,7.9505453
1740493966792,1.5646108,4.31914,8.001422
1740493966797,1.5927427,4.3754034,8.104971
1740493966802,1.5813702,4.4035354,8.124125
1740493966807,1.5472529,4.413112,8.214506
1740493966813,1.5035586,4.4262805,8.289325
1740493966817,1.453879,4.4161053,8.371924
1740493966822,1.400608,4.4304705,8.497621
1740493966827,1.3293805,4.4364557,8.631097
1740493966833,1.2641385,4.4657845,8.771158
1740493966839,1.2318168,4.5005007,8.887277
1740493966843,1.1905168,4.5262384,8.99322
1740493966849,1.1923125,4.571728,9.124901
1740493966853,1.2156559,4.5980644,9.2625675
1740493966857,1.1971009,4.6363716,9.414599
1740493966862,1.210269,4.6519337,9.524733
1740493966867,1.1988965,4.663306,9.57561
1740493966872,1.1869255,4.705205,9.64983
1740493966877,1.2246342,4.743512,9.659407
1740493966881,1.2605472,4.8081555,9.656414
1740493966887,1.2826935,4.8745947,9.601347
1740493966893,1.3455414,4.88477,9.545682
1740493966913,1.4036007,4.8841715,9.531916
1740493966914,1.4407109,4.9398365,9.5385
1740493966915,1.4862007,5.04159,9.524733
1740493966916,1.5454572,5.140351,9.584588
1740493966917,1.5873557,5.1822495,9.67018
1740493966924,1.5957354,5.239112,9.818622
1740493966925,1.5699978,5.276222,9.935937
1740493966931,1.4688427,5.3558292,10.037092
1740493966937,1.30484,5.4043117,10.201095
1740493966940,1.0875661,5.4192758,10.38066
1740493966945,0.8074445,5.4049106,10.5602255
1740493966950,0.48722005,5.4288526,10.751761
1740493966955,0.13108255,5.418677,11.003153
1740493966959,-0.14903906,5.3755813,11.452663
1740493966964,-0.40641573,5.3127337,11.844116
1740493966970,-0.7020996,5.325303,12.2002535
1740493966975,-0.87567925,5.3085437,12.610859
1740493966979,-0.94810385,5.285799,13.037026
1740493966985,-0.9911995,5.197213,13.40753
1740493966990,-0.9475053,5.105635,13.684658
1740493966994,-0.88944596,5.073912,13.971364
1740493966999,-0.81522566,5.0810947,14.12998
1740493967005,-0.6655881,5.0996494,14.201806
1740493967010,-0.4950012,5.1648917,14.198215
1740493967015,-0.3477578,5.207389,14.038402
1740493967020,-0.14305355,5.241506,13.876195
1740493967025,0.049081136,5.271434,13.609839
1740493967030,0.25977087,5.2540755,13.376405
1740493967035,0.47884035,5.16549,13.178285
1740493967040,0.62728083,5.108628,12.952631
1740493967046,0.6877344,5.0691237,12.631209
1740493967050,0.7272388,5.069722,12.341511
1740493967054,0.7344214,5.058948,12.066178
1740493967059,0.7146692,5.0320134,11.790845
1740493967065,0.6715736,4.981735,11.502343
1740493967070,0.61411273,4.9278655,11.325172
1740493967075,0.5021838,4.8267107,11.224616
1740493967080,0.3184288,4.6830587,11.16955
1740493967085,0.107140526,4.4801497,11.168951
1740493967090,-0.11671733,4.3077674,11.203069
1740493967096,-0.30466217,4.100669,11.229404
1740493967099,-0.51355624,3.9217024,11.253945
1740493967105,-0.7248446,3.7594953,11.268311
1740493967110,-0.86251116,3.6290112,11.119271
1740493967114,-0.96306765,3.591901,10.946889
1740493967120,-0.95588505,3.3758245,10.885238
1740493967124,-0.8762778,3.193865,10.7990465
1740493967129,-0.87567925,3.0370448,10.579379
1740493967134,-0.96665895,2.8856115,10.288484
1740493967139,-1.0767922,2.7712884,9.995792
1740493967144,-1.2186487,2.7371712,9.788693
1740493967149,-1.264737,2.7748797,9.582792
1740493967155,-1.1953052,2.8520927,9.376891
1740493967159,-1.0803835,2.895787,9.136273
1740493967165,-0.9528923,2.8700492,8.895058
1740493967172,-0.8026561,2.8790276,8.656835
1740493967174,-0.62488663,2.835932,8.441357
1740493967180,-0.33518824,1.9841946,7.5848308
1740493967184,0.034117375,1.8417397,7.599795
1740493967189,0.2184709,2.1751323,7.9852614
1740493967194,0.20829555,2.6940753,8.239645
1740493967198,0.091578215,3.2190042,8.4347725
1740493967203,-0.018555064,3.74094,8.525154
1740493967208,-0.18914193,4.228759,8.543709
1740493967214,-0.3705027,4.5741224,8.545505
1740493967218,-0.5069722,4.7548847,8.357559
1740493967234,-0.52732295,4.8374844,8.21271
1740493967235,-0.44592008,4.797382,8.054693
1740493967235,-0.33877954,4.7147818,7.8571715
1740493967237,-0.25438392,4.5992613,7.671621
1740493967242,-0.19512744,4.55856,7.6494746
1740493967247,-0.2136825,4.5118732,7.5944076
1740493967252,-0.35314476,4.2874165,7.2622123
1740493967257,-0.39564183,4.0665517,6.95336
1740493967263,-0.40043023,3.9851487,6.71813
1740493967267,-0.36990416,4.0066967,6.681618
1740493967272,-0.31364042,4.1162314,6.767211
1740493967277,-0.10474633,4.2066126,6.930017
1740493967282,0.15801731,4.24073,7.1065893
1740493967287,0.38726214,4.26527,7.2113357
1740493967291,0.52971715,4.2580876,7.1987658
1740493967297,0.5907693,4.0575733,7.0688806
1740493967301,0.6937199,4.0222588,6.8049197
1740493967307,0.7679402,4.158728,6.573281
1740493967312,0.81522566,4.3598413,6.5218053
1740493967316,0.9415198,4.541202,6.637924
1740493967322,1.0067618,4.5872903,6.8366427
1740493967327,1.0432734,4.602853,6.9892735
1740493967331,1.0887632,4.7147818,7.028179
1740493967336,1.0791864,4.710592,6.9527617
1740493967341,1.0139444,4.657321,6.8372416
1740493967348,0.92176765,4.654328,6.716933
1740493967351,0.7751228,4.6950297,6.6247563
1740493967356,0.6027403,4.731541,6.517017
1740493967361,0.32800564,4.735731,6.2763996
1740493967367,0.031124622,4.7919946,5.8478374
1740493967372,-0.29688102,4.9003325,5.360019
1740493967377,-0.6266823,4.973954,4.9506106
1740493967382,-0.88944596,5.0284224,4.708796
1740493967387,-1.0726024,5.079299,4.5807066
1740493967391,-1.1887212,5.1505265,4.5178585
1740493967396,-1.2066777,5.1876364,4.4777555
1740493967401,-1.1725603,5.175067,4.5579615
1740493967407,-1.079785,5.1104236,4.7177744
1740493967411,-0.81522566,5.084686,5.1247888
1740493967416,-0.46148238,5.065532,5.8262897
1740493967421,-0.10354923,5.0362034,6.7731967
1740493967427,0.27114335,5.0116625,7.6847887
1740493967432,0.60094464,4.9302597,8.540716
1740493967436,0.90021986,4.8422728,9.200917
1740493967441,1.1013328,4.811747,9.779117
1740493967448,1.2036849,4.830302,10.281301
1740493967451,1.1773487,4.891354,10.693702
1740493967456,1.1055226,4.9494133,10.9025955
1740493967461,1.0851719,4.9254713,11.048044
1740493967466,1.0414777,4.8165355,10.873865
1740493967471,0.87567925,4.9254713,10.543466
1740493967476,0.61112,5.085883,10.344747
1740493967482,0.33159694,5.2462945,10.287885
1740493967485,0.19153613,5.249287,10.354323
1740493967491,0.23702596,5.1319714,10.342952
1740493967495,0.37708676,5.121796,10.26095
1740493967501,0.39923313,5.1463366,10.09575
1740493967506,0.4441244,5.197213,10.151415
1740493967510,0.5255273,5.193622,10.160992
1740493967516,0.62129533,5.1930237,10.1226845
1740493967524,0.6751649,5.1301756,9.98442
1740493967524,0.7236475,5.0481744,9.835381
1740493967531,0.7751228,5.006874,9.612122
1740493967535,0.7757214,4.997896,9.347562
1740493967541,0.78529817,5.003283,9.132084
1740493967548,1.0199299,4.903325,9.085397
1740493967549,1.9117701,4.281431,8.806473
1740493967555,1.6472107,4.5633483,9.041702
1740493967559,1.2491747,4.899135,9.545682
1740493967565,1.3311762,5.0906715,9.273342
1740493967569,1.4059949,5.209184,9.051878
1740493967575,1.4550761,5.142745,9.005191
1740493967579,1.5640123,4.8781857,9.456498
1740493967584,1.763928,4.581305,9.908403
1740493967589,1.9829975,4.2796354,10.314819
1740493967595,2.0308816,4.1521444,10.4967785
1740493967600,1.9788077,4.1922474,10.702082
1740493967605,1.8620903,4.2640734,10.752359
1740493967610,1.7711107,4.305373,10.694301
1740493967616,1.7794905,4.26527,10.684724
1740493967619,1.9141643,4.147356,10.8182
1740493967625,2.0590134,3.9851487,11.057621
1740493967629,2.0763714,3.8935704,11.31799
1740493967634,2.0859482,3.9103298,11.620258
1740493967638,2.2894554,3.7523127,11.866262
1740493967643,2.5007436,3.5769374,12.220005
1740493967648,2.4594438,3.5470097,12.476784
1740493967653,2.2655134,3.6493618,12.573749
1740493967658,2.0883424,3.8163576,12.564172
1740493967663,1.9357121,4.1521444,12.568362
1740493967674,1.7543513,4.4717703,12.768278
1740493967675,1.6543933,4.437653,12.872425
1740493967682,1.7735049,4.2981906,12.817359
1740493967685,1.9829975,4.138976,12.694057
1740493967687,2.2134395,4.016872,12.506113
1740493967693,2.4492683,3.9001546,12.323555
1740493967703,2.6928782,3.74094,12.124836
1740493967704,3.0160956,3.5434184,11.793838
1740493967707,3.3632548,3.445855,11.562199
1740493967712,3.6774938,3.365649,11.304223
1740493967718,3.9486372,3.3213563,10.79366
1740493967727,4.257489,3.1783028,10.260351
1740493967728,4.3885717,3.084929,9.722255
1740493967733,4.3760023,3.1519666,9.181165
1740493967737,4.274847,3.330933,8.641871
1740493967742,4.2000284,3.566762,8.298303
1740493967747,4.088698,3.8097734,8.238448
1740493967752,4.0066967,3.930082,8.32045
1740493967757,3.9905357,3.916914,8.338406
1740493967762,3.9917328,3.82773,8.356961
1740493967768,4.0037036,3.7588966,8.516774
1740493967772,3.9935284,3.8265328,8.841188
1740493967776,3.942053,3.9199066,9.139266
1740493967782,3.8594532,3.9911342,9.346365
1740493967786,3.7972038,3.9827545,9.588778
1740493967791,3.8055837,3.933075,9.890448
1740493967796,3.8666358,3.8313212,10.164583
1740493967802,3.9624038,3.684078,10.406996
1740493967807,4.0402155,3.5093012,10.533889
1740493967812,4.06296,3.3512838,10.55005
1740493967819,4.0132804,3.1669302,10.451289
1740493967821,3.8839936,3.007716,10.287286
1740493967827,3.6685154,2.8640637,10.077195
1740493967832,3.4087446,2.755726,9.841965
1740493967837,3.1555579,2.6725276,9.542689
1740493967842,2.9119477,2.629432,9.220071
1740493967846,2.6527755,2.5803509,8.756194
1740493967852,2.3744495,2.542642,8.425196
1740493967856,2.1308396,2.5133133,8.248025
1740493967861,1.939902,2.508525,8.118738
1740493967867,1.7705121,2.5713725,7.979874
1740493967871,1.5849615,2.6701334,7.8302364
1740493967876,1.1210849,2.777274,7.615357
1740493967882,0.8583213,2.9933507,7.429806
1740493967884,0.842759,3.1010897,7.3567834
1740493967890,1.0223241,3.1118636,7.235876
1740493967895,1.2539631,2.9951463,7.114969
1740493967901,1.4311341,2.867655,6.9946604
1740493967905,1.5209166,2.7856536,6.7719994
1740493967910,1.5574282,2.8054059,6.597821
1740493967914,1.6190789,2.8909986,6.4260373
1740493967920,1.721431,2.9340942,6.235698
1740493967925,1.8800468,2.9921536,6.2368956
1740493967930,2.160767,2.8820202,6.4392056
1740493967935,2.505532,2.6641479,6.691195
1740493967940,2.8329391,2.3451207,6.9240313
1740493967944,3.0681696,2.0242975,7.1371155
1740493967950,3.144784,1.8136078,7.338228
1740493967954,3.0340521,1.7525556,7.4932528
1740493967960,2.7527335,1.9189527,7.7069354
1740493967964,2.4235306,2.2720973,7.9511437
1740493967969,2.0973208,2.6862943,8.217499
1740493967975,1.8369513,2.9502552,8.428787
1740493967979,1.6639702,2.9682117,8.512584
1740493967984,1.6244658,2.8221653,8.6095495
1740493967989,1.5825673,2.6264393,8.805275
1740493967995,1.4024036,2.5851393,8.825027
1740493968000,1.1941081,2.6850972,8.771158
1740493968004,1.0259154,2.842516,8.65025
1740493968009,0.9451111,2.9047651,8.533533
1740493968014,0.8774749,2.973,8.415619
1740493968019,0.8074445,3.1489737,7.7105265
1740493968025,0.8631097,3.056797,7.599196
1740493968028,0.85413146,2.9933507,7.5507135
1740493968034,0.80445176,2.9586349,7.615956
1740493968039,0.84814596,2.9364884,7.691373
1740493968044,0.997185,3.0190883,7.744644
1740493968048,1.1336545,3.1441853,7.876325
1740493968054,1.1318588,3.2082303,7.994838
1740493968058,1.1091139,3.2291796,8.137892
1740493968063,1.1384429,3.1615434,8.1797905
1740493968068,1.1965023,3.0735564,8.279149
1740493968074,1.2018893,3.108871,8.401853
1740493968078,1.1755531,3.1268275,8.561067
1740493968084,1.1360487,3.1028855,8.695142
1740493968088,1.0720038,3.0298622,8.910022
1740493968093,1.0175357,2.9819782,9.128492
1740493968098,0.997185,2.939481,9.379884
1740493968103,0.9103952,2.959832,9.56723
1740493968108,0.8122329,2.9358897,9.760562
1740493968113,0.6596026,2.9562407,9.846753
1740493968118,0.40641573,2.9173348,9.902418
1740493968123,0.23822308,2.8461072,9.849746
1740493968127,0.14185645,2.8520927,9.640852
1740493968132,0.059855044,2.7353754,9.294889
1740493968137,0.13587095,2.8323407,9.405023
1740493968142,0.15861586,3.0059202,9.543288
1740493968147,0.18435353,3.2094274,9.558251
1740493968153,0.22804771,3.3201592,9.5732155
1740493968157,0.25857377,3.271078,9.578603
1740493968162,0.23702596,3.0711622,9.505579
1740493968167,0.16759412,2.795829,9.466075
1740493968179,0.17537527,2.3373394,9.56304
1740493968181,0.27353755,2.0398598,9.658808
1740493968184,0.4321534,1.9153614,9.884461
1740493968186,0.52971715,1.9243397,10.257359
1740493968191,0.52971715,1.9243397,10.257359
1740493968196,0.6302736,2.088941,10.831967
1740493968202,0.6991069,2.3505075,11.339538
1740493968206,0.7386112,2.621651,11.659163
1740493968211,0.7445967,2.9580362,11.847109
1740493968216,0.7858967,3.2752678,11.922526
1740493968233,0.81642276,3.530849,11.981782
1740493968234,0.83737206,3.6822822,11.98298
1740493968234,0.87208796,3.7989995,11.960235
1740493968248,0.86251116,3.7912183,11.753136
1740493968251,0.79008657,3.714604,11.463438
1740493968251,0.6955156,3.6337996,11.226412
1740493968252,0.53450555,3.5206735,11.032481
1740493968290,0.029927522,3.3740287,10.742783
1740493968290,0.029927522,3.3740287,10.742783
1740493968291,-0.26396075,3.3662477,10.729016
1740493968291,-0.6015432,3.4111388,10.730213
1740493968291,-0.9487024,3.4572272,10.664971
1740493968291,-1.2569559,3.4596214,10.636241
1740493968291,-1.4700398,3.4464533,10.7673235
1740493968292,-1.5711949,3.335123,10.967239
1740493968327,-1.5861586,3.1729157,11.291654
1740493968327,-1.5520413,2.9801826,11.513716
1740493968327,-1.4838065,2.7096379,11.683704
1740493968328,-1.3329718,2.4588451,11.954847
1740493968328,-1.0582372,2.3391352,12.394184
1740493968329,-0.78769237,2.3157916,12.861651
1740493968329,-0.58777654,2.4007857,13.241731
1740493968329,-0.46507367,2.457648,13.48175
1740493968336,-0.32202014,2.4636335,13.72536
1740493968346,-0.18674773,2.4911668,14.164097
1740493968347,-0.22804771,2.6360161,14.629171
1740493968349,-0.43754035,2.7922378,14.938023
1740493968355,-0.741604,2.932897,15.096041
1740493968358,-1.0540473,3.007716,15.020623
1740493968364,-1.459266,2.944868,14.669872
1740493968370,-1.8369513,2.7102363,14.27842
1740493968374,-2.132635,2.4331074,13.962984
1740493968379,-2.4145525,2.19249,13.627796
1740493968383,-2.693477,2.0141222,13.278243
1740493968388,-2.915539,1.9099745,12.919112
1740493968394,-3.0460231,1.8914193,12.4390745
1740493968399,-3.0442274,1.863886,11.981782
1740493968406,-2.9245174,1.8788497,11.5633955
1740493968408,-2.7443538,1.8555063,11.168951
1740493968414,-2.5617957,1.845331,10.824186
1740493968425,-2.345719,1.8321629,10.53748
1740493968426,-2.1086931,1.8261774,10.292673
1740493968428,-1.9189527,1.8327614,10.028113
1740493968434,-1.762731,1.8830396,9.837176
1740493968438,-1.6741456,1.8986019,9.67856
1740493968443,-1.6310499,1.963844,9.582792
1740493968448,-1.6250644,2.0404584,9.510966
1740493968458,-1.6436194,2.058415,9.445126
1740493968458,-1.6579847,2.0667946,9.416395
1740493968463,-1.7160441,2.0482395,9.320627
1740493968468,-1.7124528,1.9901801,9.3104515
1740493968473,-1.6771383,1.910573,9.264962
1740493968478,-1.6543933,1.8429368,9.270947
1740493968483,-1.6573862,1.769315,9.270947
1740493968490,-1.6813282,1.6861166,9.252393
1740493968493,-1.6777369,1.6130934,9.165004
1740493968497,-1.6771383,1.6130934,9.054273
1740493968507,-1.673547,1.5682021,8.955511
1740493968508,-1.6490064,1.5801731,8.821436
1740493968513,-1.596334,1.6017209,8.678383
1740493968517,-1.5179238,1.6047137,8.546103
1740493968523,-1.448492,1.5807717,8.368932
1740493968527,-1.352724,1.5981296,8.212111
1740493968533,-1.2246342,1.6334441,8.031349
1740493968540,-1.1264719,1.6938977,7.826047
1740493968542,-1.1043255,1.7477672,7.685986
1740493968547,-1.0534488,1.8058267,7.4848733
1740493968558,-0.95109665,1.8537107,7.3166804
1740493968558,-0.8678981,1.9351135,7.3992805
1740493968562,-0.88765025,2.047641,7.48188
1740493968567,-0.9271546,2.1362264,7.536947
1740493968575,-0.9295488,2.2122424,7.61416
1740493968576,-0.92057055,2.272696,7.700351
1740493968582,-0.9151836,2.3277626,7.904457
1740493968592,-0.9540894,2.3732524,8.122928
1740493968592,-1.0103531,2.3798366,8.336611
1740493968596,-1.0791864,2.3660698,8.476671
1740493968601,-1.1258733,2.3475149,8.547898
1740493968608,-1.1528081,2.3116016,8.608353
1740493968612,-1.1701661,2.31639,8.723872
1740493968616,-1.1749545,2.3116016,8.922591
1740493968626,-1.1486182,2.319383,9.024943
1740493968627,-1.1420342,2.3026235,9.155427
1740493968631,-1.062427,2.328361,9.188946
1740493968636,-1.0133458,2.3744495,9.200917
1740493968642,-0.98581254,2.4259248,9.139266
1740493968646,-0.9720459,2.4893713,9.101558
1740493968651,-0.9911995,2.5007436,9.03871
1740493968658,-0.99179804,2.4468741,8.908226
1740493968661,-1.0079589,2.4486697,8.833407
1740493968666,-1.027711,2.4139538,8.684967
1740493968677,-1.0576386,2.44448,8.567052
1740493968677,-1.0971429,2.5145104,8.455722
1740493968696,-1.1402385,2.5342624,8.393473
1740493968697,-1.1857284,2.5605986,8.352173
1740493968697,-1.2114661,2.545635,8.309675
1740493968698,-1.2545617,2.5049336,8.291121
1740493968700,-1.2204443,2.5246856,8.285135
1740493968708,-1.1815386,2.5486276,8.334216
1740493968710,-1.1593921,2.585738,8.388684
1740493968715,-1.1414356,2.593519,8.469488
1740493968725,-1.1168951,2.5605986,8.520964
1740493968725,-1.067814,2.520496,8.553286
1740493968730,-1.0235212,2.5115175,8.595782
1740493968735,-0.97025025,2.5252843,8.623915
1740493968741,-0.9624691,2.5510218,8.634089
1740493968745,-0.95109665,2.610877,8.705916
1740493968750,-0.919972,2.6521769,8.808268
1740493968758,-0.89303726,2.7036524,8.861539
1740493968759,-0.86849666,2.7635074,8.879496
1740493968765,-0.88405895,2.8209682,8.920197
1740493968778,-0.91697925,2.9041667,8.960898
1740493968779,-0.9331401,2.9640217,9.00579
1740493968779,-0.96426475,3.0023289,9.021352
1740493968784,-0.9935937,3.0226796,9.039907
1740493968794,-1.002572,3.0831332,9.061455
1740493968795,-1.0468647,3.122039,9.102157
1740493968799,-1.0779893,3.1663318,9.139266
1740493968809,-1.0749966,3.1884782,9.208099
1740493968809,-1.0773908,3.2070332,9.285912
1740493968814,-1.0893618,3.1896753,9.428367
1740493968819,-1.1043255,3.1663318,9.519346
1740493968825,-1.0881647,3.1381998,9.579201
1740493968828,-0.9911995,3.1364043,9.727641
1740493968834,-0.9068039,3.1250317,9.873089
1740493968838,-0.75357497,3.1268275,10.0664215
1740493968843,-0.6512229,3.104681,10.230424
1740493968848,-0.56443304,3.1106665,10.430939
1740493968853,-0.46686932,3.122039,10.660183
1740493968858,-0.35314476,3.104681,10.881048
1740493968863,-0.2777274,3.0783448,11.045051
1740493968868,-0.21667525,3.0268695,11.159973
1740493968873,-0.16280572,3.0041246,11.316195
1740493968878,-0.13467385,2.971803,11.448474
1740493968883,-0.1604115,2.92751,11.534067
1740493968888,-0.22804771,2.908955,11.647791
1740493968893,-0.34356794,2.861071,11.674128
1740493968897,-0.4225766,2.8113914,11.742362
1740493968902,-0.45310268,2.719813,11.792641
1740493968908,-0.40222588,2.6192567,11.864467
1740493968913,-0.3417723,2.5372553,11.948263
1740493968917,-0.28191724,2.468422,12.038645
1740493968923,-0.18495208,2.4378958,12.097302
1740493968928,-0.12210429,2.4187422,12.11466
1740493968933,-0.04070143,2.4127567,12.096106
1740493968938,0.05746084,2.4115596,12.086529
1740493968943,0.16101007,2.4343045,12.020688
1740493968948,0.27952304,2.4037786,11.939884
1740493968953,0.4225766,2.3391352,11.847707
1740493968958,0.5434838,2.2703018,11.724405
1740493968963,0.6871359,2.2403743,11.629835
1740493968968,0.79726917,2.2134395,11.511322
1740493968973,0.9020155,2.1733365,11.418547
1740493968977,0.97144735,2.1416135,11.422736
1740493968982,1.0139444,2.112883,11.428721
1740493968989,1.0378864,2.0739772,11.47062
1740493968991,1.0630256,2.0171149,11.514913
1740493968997,1.0618285,1.9973627,11.674128
1740493969002,1.0432734,1.9662381,11.87943
1740493969007,1.0480618,1.9542671,12.088325
1740493969012,1.0696096,1.9590555,12.357672
1740493969017,1.1079168,1.9434932,12.603078
1740493969022,1.1593921,1.8776526,12.8832
1740493969036,1.2330139,1.7938557,13.181876
1740493969039,1.3257892,1.733402,13.418902
1740493969039,1.4095862,1.6232687,13.55597
1740493969043,1.5304934,1.5496471,13.724163
1740493969047,1.6573862,1.5035586,13.870209
1740493969052,1.7154455,1.4197617,13.90672
1740493969057,1.769315,1.376666,13.782222
1740493969062,1.7956513,1.3700819,13.6254015
1740493969067,1.8100165,1.3730747,13.392566
1740493969072,1.8644845,1.3611037,13.108254
1740493969077,1.9075803,1.3317747,12.723985
1740493969082,1.9303252,1.3305776,12.251729
1740493969088,1.8986019,1.376666,11.792641
1740493969093,1.8614918,1.407192,11.397597
1740493969097,1.8285716,1.4065934,10.986992
1740493969102,1.8549078,1.4119805,10.602123
1740493969107,1.9045875,1.4185646,10.243592
1740493969111,1.9285295,1.4496891,9.92636
1740493969117,1.9722236,1.5119383,9.686341
1740493969121,2.034473,1.5658079,9.511565
1740493969127,2.142212,1.5945383,9.537302
1740493969131,2.2493525,1.6017209,9.640852
1740493969136,2.3241713,1.5640123,9.795278
1740493969141,2.3720553,1.5406688,9.985018
1740493969147,2.3301568,1.4850036,10.135254
1740493969151,2.2762873,1.4107834,10.231621
1740493969157,2.1960814,1.3210008,10.298658
1740493969160,2.03148,1.2797008,10.316615
1740493969167,1.822586,1.2808979,10.359711
1740493969170,1.6466122,1.2677298,10.310031
1740493969185,1.4730326,1.2264298,10.257957
1740493969185,1.347337,1.1426327,10.126276
1740493969186,1.2791022,1.1198878,10.117896
1740493969190,1.1893197,1.1246762,10.001179
1740493969195,1.1115081,1.1378443,9.841366
1740493969200,1.0295067,1.13964,9.674371
1740493969208,0.931943,1.1845313,9.403227
1740493969209,0.8702923,1.2216414,9.203311
1740493969215,0.8451532,1.2641385,8.931569
1740493969219,0.82719666,1.3066356,8.723274
1740493969226,0.8283938,1.359308,8.5299425
1740493969230,0.8182184,1.3976152,8.380304
1740493969235,0.82240826,1.4413095,8.255207
1740493969240,0.81881696,1.4945804,8.143877
1740493969245,0.8367735,1.5688007,8.099585
1740493969249,0.8343793,1.6376339,8.109161
1740493969254,0.82719666,1.6591818,8.145673
1740493969259,0.8559271,1.6980876,8.163031
1740493969271,0.84455466,1.7274165,8.212111
1740493969276,0.80804306,1.7741034,8.333617
1740493969276,0.75596917,1.8321629,8.436568
1740493969278,0.7254431,1.8543092,8.515577
1740493969284,0.7529764,1.8716671,8.521563
1740493969289,0.789488,1.9033904,8.561666
1740493969293,0.8283938,1.9135658,8.585608
1740493969298,0.85532856,1.9434932,8.558673
1740493969303,0.91697925,1.9596541,8.546103
1740493969308,0.9151836,2.0021513,8.47727
1740493969313,0.9163807,2.0488381,8.412626
1740493969318,0.9283517,2.095525,8.32404
1740493969328,0.93134445,2.15538,8.20433
1740493969328,0.93014735,2.203264,8.075044
1740493969332,0.9355343,2.2158337,7.909844
1740493969337,0.95588505,2.2290018,7.821857
1740493969343,0.9367314,2.2571337,7.7727757
1740493969347,0.9091981,2.2894554,7.721899
1740493969352,0.8571242,2.3349452,7.6345105
1740493969357,0.83617496,2.3523033,7.621941
1740493969362,0.8182184,2.3582888,7.5812397
1740493969367,0.80924016,2.4091654,7.6093717
1740493969372,0.789488,2.44029,7.6267295
1740493969377,0.75836337,2.461838,7.7183075
1740493969383,0.76195467,2.460641,7.8410106
1740493969387,0.7733272,2.4756045,8.00621
1740493969392,0.7942764,2.4893713,8.050503
1740493969397,0.83018947,2.5091233,8.15525
1740493969403,0.8846575,2.529474,8.236053
1740493969409,0.9235633,2.5755625,8.306683
1740493969412,0.89543146,2.5941176,8.399458
1740493969418,0.87448215,2.618658,8.537724
1740493969424,0.8463503,2.6479871,8.643068
1740493969438,0.80564886,2.6629508,8.768166
1740493969439,0.760159,2.689287,8.805275
1740493969440,0.7188591,2.7030537,8.817246
1740493969443,0.6715736,2.7521348,8.93576
1740493969447,0.6266823,2.7724855,8.978256
1740493969452,0.5650316,2.7820623,9.0081835
1740493969457,0.53211135,2.7635074,9.009381
1740493969462,0.533907,2.8275523,9.0237465
1740493969467,0.54408234,2.8999767,9.012972
1740493969472,0.5267244,2.979584,8.9842415
1740493969477,0.51235914,3.043629,9.059659
1740493969482,0.4902128,3.0933087,9.121908
1740493969488,0.45609543,3.110068,9.1350765
1740493969491,0.44951138,3.1663318,9.173384
1740493969497,0.46088383,3.2202013,9.232041
1740493969504,0.45310268,3.2680852,9.223063
1740493969507,0.41599256,3.3051953,9.275137
1740493969512,0.33877954,3.3273418,9.427768
1740493969517,0.25857377,3.309984,9.604341
1740493969522,0.23642741,3.2716765,9.81084
1740493969525,0.20290859,3.1974564,10.023325
1740493969532,0.19393034,3.1310172,10.227431
1740493969538,0.2208651,3.0609868,10.437522
1740493969542,0.21547815,3.0376434,10.67814
1740493969546,0.21667525,2.9753942,10.98759
1740493969551,0.13587095,2.8951883,11.357494
1740493969556,0.031124622,2.8006175,11.683105
1740493969561,-0.10115502,2.6982653,11.982381
1740493969570,-0.23702596,2.6007016,12.304401
1740493969571,-0.3429694,2.4720132,12.570756
1740493969576,-0.43035775,2.3834279,12.794614
1740493969581,-0.5105635,2.3175871,13.040618
1740493969585,-0.5770026,2.2002714,13.211803
1740493969590,-0.65780693,2.0769699,13.403339
1740493969595,-0.7146692,1.9285295,13.4979105
1740493969600,-0.7858967,1.8148049,13.512276
1740493969605,-0.8355764,1.7555484,13.475165
1740493969610,-0.88166475,1.7328035,13.417107
1740493969615,-0.92895025,1.6903064,13.309367
1740493969620,-0.9487024,1.6687586,13.086706
1740493969625,-0.92895025,1.6250644,12.822147
1740493969630,-0.93134445,1.5729905,12.533048
1740493969635,-0.9127894,1.5227122,12.239758
1740493969640,-0.96187055,1.5047557,11.979388
1740493969645,-0.9983821,1.5161282,11.783662
1740493969650,-1.0121487,1.5310919,11.702858
1740493969655,-1.0199299,1.5263035,11.701062
1740493969661,-1.021127,1.5514427,11.729793
1740493969665,-0.9840169,1.5640123,11.80521
1740493969670,-0.9708488,1.6005238,11.95784
1740493969676,-0.95109665,1.6041151,12.149975
1740493969684,-0.97025025,1.5783775,12.396578
1740493969685,-0.9840169,1.4921862,12.628816
1740493969690,-1.049259,1.3676877,12.871827
1740493969696,-1.1372458,1.2360066,13.086108
1740493969699,-1.246182,1.1348516,13.1950445
1740493969705,-1.4083891,1.0408791,13.245921
1740493969710,-1.5939398,0.9528923,13.295002
1740493969714,-1.763928,0.8499416,13.258491
1740493969719,-1.9219455,0.724246,13.128007
1740493969724,-2.0805612,0.65182143,12.887988
1740493969729,-2.2182279,0.60333884,12.542026
1740493969735,-2.295441,0.5847838,12.178705
1740493969740,-2.3008277,0.58119243,11.800422
1740493969745,-2.2709002,0.6027403,11.462839
1740493969750,-2.219425,0.6464345,11.089942
1740493969755,-2.11827,0.7074866,10.783484
1740493969760,-2.0171149,0.801459,10.43872
1740493969763,-1.858499,0.91458505,10.149619
1740493969774,-1.6825253,1.021127,9.867104
1740493969774,-1.5496471,1.1246762,9.609129
1740493969778,-1.4185646,1.1833342,9.404425
1740493969784,-1.2503718,1.2198458,9.212888
1740493969788,-1.1378443,1.2354081,9.121908
1740493969794,-1.01574,1.2479776,9.027337
1740493969798,-0.93014735,1.2641385,8.942942
1740493969803,-0.8631097,1.2653356,8.881889
1740493969808,-0.79607207,1.2898762,8.884284
1740493969813,-0.79487497,1.3024458,8.8884735
1740493969819,-0.83617496,1.3000516,8.8328085
1740493969823,-0.8810662,1.3204023,8.823831
1740493969828,-0.931943,1.3263878,8.866327
1740493969833,-1.0055647,1.3533225,8.884883
1740493969838,-1.0935516,1.3688848,8.889072
1740493969846,-1.151611,1.3826514,8.895058
1740493969847,-1.2306197,1.353921,8.862736
1740493969853,-1.2755109,1.3132197,8.851364
1740493969858,-1.282095,1.2934675,8.802881
1740493969863,-1.3042414,1.2904748,8.792706
1740493969868,-1.3455414,1.2737153,8.721478
1740493969873,-1.3718776,1.3012487,8.5862055
1740493969878,-1.3814543,1.2814964,8.437167
1740493969883,-1.38325,1.2982559,8.343194
1740493969887,-1.3760674,1.3323733,8.258201
1740493969893,-1.400608,1.3628993,8.119935
1740493969897,-1.4197617,1.4347254,8.008006
1740493969903,-1.4341269,1.4634558,7.928399
1740493969907,-1.4449008,1.4568717,7.8769236
1740493969915,-1.4772224,1.472434,7.832032
1740493969918,-1.5346833,1.4957775,7.845799
1740493969922,-1.5753847,1.5328877,7.855974
1740493969929,-1.6645688,1.5915456,7.8984714
1740493969933,-1.7375919,1.602918,7.972093
1740493969937,-1.7824832,1.6250644,8.081628
1740493969942,-1.8243817,1.620276,8.218098
1740493969947,-1.8549078,1.620276,8.327632
1740493969952,-1.8327614,1.6406267,8.498219
1740493969957,-1.8016368,1.6519991,8.705916
1740493969962,-1.7591397,1.6657659,8.878299
1740493969966,-1.6932992,1.6567876,9.03452
1740493969971,-1.6178818,1.6418238,9.190742
1740493969977,-1.6178818,1.6418238,9.190742
1740493969983,-1.5514427,1.650802,9.308656
1740493969987,-1.484405,1.6496049,9.379884
1740493969991,-1.4203602,1.690905,9.458893
1740493969997,-1.3676877,1.7292122,9.510966
1740493970002,-1.3443443,1.8088194,9.515755
1740493970006,-1.3605051,1.8327614,9.458294
1740493970013,-1.3263878,1.8429368,9.3738985
1740493970016,-1.3485341,1.8477252,9.261371
1740493970021,-1.3652935,1.8561049,9.122507
1740493970026,-1.3748703,1.8668787,9.003994
1740493970031,-1.38325,1.845331,8.841787
1740493970036,-1.389834,1.9554642,8.5886
1740493970041,-1.389834,1.9554642,8.5886
1740493970046,-1.3796587,1.9961656,8.457518
1740493970050,-1.3844471,2.0326772,8.422203
1740493970058,-1.395221,2.079364,8.380304
1740493970059,-1.4323312,2.1380222,8.300697
1740493970065,-1.4443022,2.190096,8.239645
1740493970071,-1.4155718,2.2284033,8.294712
1740493970075,-1.3820529,2.2661119,8.358158
1740493970081,-1.2826935,2.2691047,8.444349
1740493970085,-1.1773487,2.2260091,8.605958
1740493970092,-0.61770403,1.9141643,8.831612
1740493970096,-0.4938041,1.6196774,9.173983
1740493970101,-1.0378864,1.8686744,9.306262
1740493970105,-1.2545617,2.2750902,8.942344
1740493970111,-1.1563994,2.678513,8.591593
1740493970115,-1.0773908,2.8646624,8.655638
1740493970124,-1.0564415,2.7581203,9.020754
1740493970124,-1.0139444,2.472612,9.277532
1740493970130,-0.943914,2.2457612,9.272743
1740493970135,-0.8888474,2.1338322,9.123704
1740493970141,-0.93613285,2.1499932,9.099164
1740493970147,-1.0360907,2.292448,9.14585
1740493970149,-1.1432313,2.4223335,9.157223
1740493970157,-1.2024878,2.520496,9.17099
1740493970159,-1.2306197,2.5372553,9.120112
1740493970164,-1.2467805,2.5127146,9.128492
1740493970170,-1.2641385,2.4821887,9.134478
1740493970175,-1.2731167,2.468422,9.14585
1740493970186,-1.2587515,2.473809,9.167398
1740493970193,-1.2282255,2.4672248,9.203311
1740493970195,-1.1593921,2.4570496,9.2547865
1740493970199,-1.0546459,2.4223335,9.331401
1740493970200,-0.93732995,2.391209,9.416994
1740493970204,-0.83138657,2.3971944,9.5013895
1740493970208,-0.7577648,2.4462755,9.613917
1740493970214,-0.6572084,2.5354595,9.688736
1740493970219,-0.55725044,2.6491842,9.740809
1740493970223,-0.41838676,2.7515364,9.831191
1740493970229,-0.26276365,2.837129,9.9233675
1740493970234,-0.06943185,2.8568811,10.092158
1740493970239,0.11133038,2.8407204,10.19451
1740493970254,0.260968,2.7730842,10.289082
1740493970255,0.35673606,2.6725276,10.33098
1740493970255,0.31064767,2.5629928,10.379463
1740493970268,0.12629414,2.4384944,10.436325
1740493970268,-0.18734628,2.2948422,10.481216
1740493970268,-0.6679823,2.1823149,10.623672
1740493970273,-1.3060371,2.1308396,10.697293
1740493970277,-2.0697873,2.087744,10.776301
1740493970282,-2.8844144,2.0278888,10.965444
1740493970288,-3.66253,1.9835961,11.091738
1740493970292,-4.3281183,1.9428947,11.217434
1740493970296,-4.827309,1.9087774,11.379042
1740493970302,-5.1409497,1.8614918,11.6029
1740493970307,-5.1786585,1.797447,11.89619
1740493970314,-4.9745526,1.6944963,12.178107
1740493970316,-4.5633483,1.5616181,12.539033
1740493970322,-4.0827127,1.4437037,12.8927765
1740493970327,-3.5936968,1.3964181,13.025056
1740493970331,-3.0933087,1.453879,13.0442095
1740493970337,-2.6354175,1.6071079,12.8832
1740493970343,-2.1643584,1.7878702,12.8293295
1740493970348,-1.7932571,1.9788077,12.72997
1740493970352,-1.4796166,2.1015105,12.692262
1740493970358,-1.1941081,2.2272062,12.513295
1740493970368,-0.8912416,2.3068132,12.26789
1740493970368,-0.6266823,2.4103625,12.005724
1740493970372,-0.37828386,2.5234885,11.683105
1740493970377,-0.19273324,2.5552118,11.413159
1740493970382,-0.03232172,2.556409,11.262324
1740493970386,0.16101007,2.5390508,11.250354
1740493970393,0.3561375,2.5192988,11.386824
1740493970398,0.49081135,2.5504234,11.624448
1740493970400,0.59495914,2.6072857,11.821371
1740493970407,0.61530983,2.6539726,12.105083
1740493970412,0.57760113,2.6390088,12.515091
1740493970415,0.516549,2.6084828,12.937069
1740493970421,0.39205053,2.5145104,13.338098
1740493970426,0.2717419,2.3654714,13.704411
1740493970431,0.11492168,2.190096,13.974357
1740493970436,-0.04189853,2.0284874,14.276026
1740493970442,-0.19812019,1.8596961,14.604032
1740493970448,-0.39863458,1.7100586,14.867394
1740493970453,-0.5614403,1.5807717,15.094245
1740493970455,-0.6727707,1.4556746,15.1936035
1740493970461,-0.7164649,1.3467385,15.225925
1740493970467,-0.6973112,1.2204443,15.164873
1740493970469,-0.60932434,1.0893618,14.979323
1740493970475,-0.45489833,0.9816227,14.717756
1740493970480,-0.30825347,0.88645315,14.354436
1740493970485,-0.16460137,0.87567925,13.851055
1740493970490,-0.037708677,0.89782566,13.350069
1740493970495,0.110133275,0.9708488,12.734758
1740493970500,0.25318682,1.0486604,12.052411
1740493970505,0.43275195,1.0815806,11.434708
1740493970510,0.58538234,1.1001357,10.808623
1740493970514,0.75716627,1.0875661,10.316615
1740493970520,0.9271546,1.1097125,9.847352
1740493970526,1.0642227,1.1330559,9.483433
1740493970531,1.1611878,1.1593921,9.152434
1740493970535,1.2814964,1.1701661,8.965088
1740493970540,1.3802572,1.1492168,8.817844
1740493970545,1.4389153,1.1324574,8.732851
1740493970550,1.4652514,1.110311,8.747814
1740493970555,1.471237,1.1145009,8.789713
1740493970560,1.448492,1.0995371,8.8884735
1740493970565,1.353921,1.0636241,9.001001
1740493970570,1.2844892,0.99658644,9.123704
1740493970575,1.1761516,0.92176765,9.297882
1740493970579,1.1079168,0.8523358,9.474455
1740493970585,1.0372878,0.7793127,9.630676
1740493970589,0.99898064,0.7188591,9.80665
1740493970595,0.98461545,0.6536171,9.928755
1740493970609,0.97862995,0.61112,10.00896
1740493970610,0.96067345,0.57161564,10.144233
1740493970611,0.9151836,0.5638345,10.204087
1740493970613,0.83018947,0.5722142,10.234613
1740493970620,0.7739257,0.59855044,10.281899
1740493970624,0.7098808,0.6218939,10.277111
1740493970629,0.62967503,0.65301853,10.245388
1740493970634,0.56563014,0.6374562,10.1460285
1740493970638,0.49679685,0.6314707,10.027515
1740493970643,0.47046062,0.58538234,9.883863
1740493970649,0.46387658,0.5979519,9.741408
1740493970653,0.5153519,0.6356605,9.598354
1740493970658,0.5793968,0.6877344,9.473258
1740493970663,0.6428431,0.7685388,9.322423
1740493970668,0.7164649,0.7906851,9.141062
1740493970673,0.79607207,0.8559271,8.956709
1740493970679,0.85652566,0.9103952,8.860941
1740493970686,0.908001,0.95708215,8.6813755
1740493970687,0.96426475,1.003769,8.5700445
1740493970693,0.9576807,1.050456,8.444349
1740493970698,0.97144735,1.0905589,8.3390045
1740493970703,0.9888053,1.1216835,8.262989
1740493970708,1.0031705,1.1306617,8.210316
1740493970712,1.0319009,1.1318588,8.192958
1740493970716,1.0450691,1.1372458,8.20433
1740493970722,1.0606314,1.1312603,8.271368
1740493970727,1.0402806,1.1563994,8.323442
1740493970734,1.0133458,1.1647792,8.396465
1740493970737,0.9223662,1.1791444,8.470686
1740493970741,0.8475474,1.1611878,8.51019
1740493970747,0.82899237,1.146224,8.565855
1740493970751,0.79008657,1.163582,8.658031
1740493970756,0.7224504,1.2401965,8.692149
1740493970761,0.6302736,1.2779051,8.768166
1740493970768,0.516549,1.2719196,8.74961
1740493970771,0.44891283,1.340753,8.754398
1740493970776,0.43394905,1.376666,8.762778
1740493970784,0.427365,1.395221,8.721478
1740493970789,0.45130703,1.4203602,8.680777
1740493970791,0.51475334,1.471237,8.64666
1740493970796,0.5554548,1.5101427,8.59279
1740493970802,0.5823896,1.578976,8.546701
1740493970806,0.61530983,1.6298528,8.457518
1740493970811,0.6147113,1.6825253,8.374918
1740493970821,0.61770403,1.7304093,8.286332
1740493970822,0.6452374,1.8022354,8.207922
1740493970826,0.6823475,1.8375498,8.1558485
1740493970831,0.7140707,1.8686744,8.12233
1740493970835,0.7679402,1.8740613,8.080431
1740493970840,0.7966706,1.8914193,8.082825
1740493970846,0.8194155,1.9476831,8.13849
1740493970850,0.79846627,2.0039468,8.213309
1740493970855,0.79607207,2.0757728,8.286931
1740493970860,0.75357497,2.1080947,8.3629465
1740493970866,0.7332243,2.1332338,8.41502
1740493970870,0.7104794,2.15957,8.475474
1740493970875,0.6380547,2.2535424,8.549694
1740493970880,0.55246204,2.2272062,8.591593
1740493970886,0.4321534,2.2056582,8.685565
1740493970891,0.3477578,2.2140381,8.847174
1740493970896,0.26515785,2.2451627,9.002198
1740493970900,0.18375498,2.3397336,9.091382
1740493970906,0.16579847,2.273893,9.0554695
1740493970910,0.18255788,2.1691468,9.108142
1740493970917,0.23343466,2.1051018,9.275736
1740493970920,0.24540567,2.136825,9.308058
1740493970927,0.27114335,2.244564,9.354146
1740493970931,0.31364042,2.2505496,9.219472
1740493970936,0.3657143,2.1769278,9.169194
1740493970940,0.4333505,2.1320367,9.126697
1740493970946,0.47465047,2.1583729,9.090784
1740493970950,0.49679685,2.2421699,9.096769
1740493970956,0.5267244,2.3127987,9.119514
1740493970960,0.5602432,2.3116016,9.132084
1740493970965,0.5482722,2.2948422,9.131485
1740493970970,0.53689975,2.285864,9.18715
1740493970975,0.52133745,2.2732944,9.323022
1740493970990,0.45848963,2.2876596,9.444528
1740493970996,0.41958386,2.304419,9.505579
1740493970998,0.36870706,2.3409307,9.64983
1740493970999,0.30705637,2.3301568,9.742006
1740493970999,0.2765303,2.207454,9.7863
1740493971004,0.2873042,2.166154,9.904214
1740493971008,0.25917232,2.168548,9.945514
1740493971013,0.19393034,2.3421278,10.022128
1740493971018,0.11671733,2.348712,10.071808
1740493971023,0.10115502,2.2732944,10.107721
1740493971028,0.110133275,2.2421699,10.193314
1740493971033,0.16519992,2.2828712,10.300454
1740493971037,0.17657238,2.35769,10.409989
1740493971044,0.23762453,2.4331074,10.495582
1740493971048,0.3196259,2.496554,10.586561
1740493971060,0.42317516,2.5019407,10.7116585
1740493971061,0.56443304,2.5073278,10.765528
1740493971062,0.6907272,2.5192988,10.840945
1740493971067,0.8110358,2.5492263,10.932524
1740493971073,0.9223662,2.5959132,10.916363
1740493971078,0.98222125,2.618658,10.873267
1740493971083,1.01574,2.64679,10.767922
1740493971087,1.0528502,2.6761189,10.688913
1740493971093,1.0534488,2.665345,10.556035
1740493971097,0.9888053,2.6521769,10.410587
1740493971103,0.9056068,2.64679,10.28549
1740493971107,0.8439561,2.6150668,10.121488
1740493971112,0.7685388,2.707842,9.970653
1740493971117,0.7134721,2.5570073,9.739014
1740493971122,0.65182143,2.4708161,9.601946
1740493971127,0.6159084,2.4480712,9.500193
1740493971131,0.5057751,2.4929626,9.397242
1740493971136,0.29568392,2.6839,9.321226
1740493971142,0.16579847,2.593519,9.232041
1740493971147,0.09935937,2.4797945,9.24102
1740493971152,0.10115502,2.4139538,9.296685
1740493971157,0.059855044,2.4133554,9.378687
1740493971162,0.027533319,2.4504654,9.522937
1740493971167,0.0724246,2.4672248,9.602545
1740493971172,0.12030864,2.428319,9.639654
1740493971176,0.20051439,2.3714569,9.715072
1740493971182,0.26515785,2.3211784,9.731233
1740493971192,0.3196259,2.3876176,9.721058
1740493971193,0.37588966,2.4139538,9.610924
1740493971196,0.48722005,2.3546975,9.558251
1740493971203,0.5805939,2.3756466,9.485827
1740493971206,0.65660983,2.432509,9.436746
1740493971211,0.694917,2.544438,9.363124
1740493971220,0.6835446,2.5971103,9.223063
1740493971221,0.6835446,2.6527755,9.087193
1740493971226,0.7098808,2.6922798,9.030929
1740493971230,0.700304,2.7593174,9.018359
1740493971235,0.7009025,2.8078,9.049484
1740493971240,0.7062895,2.8275523,9.157223
1740493971245,0.7098808,2.8449101,9.221867
1740493971250,0.7308301,2.8419175,9.317036
1740493971256,0.7266402,2.8269536,9.457695
1740493971260,0.6973112,2.823961,9.569624
1740493971265,0.65182143,2.8461072,9.680356
1740493971270,0.6314707,2.8766334,9.822811
1740493971276,0.62488663,2.7856536,9.99639
1740493971280,0.6386533,2.7491422,10.175357
1740493971285,0.59376204,2.759916,10.299257
1740493971290,0.5255273,2.8000188,10.349535
1740493971295,0.45130703,2.8496985,10.4010105
1740493971300,0.3441665,2.9364884,10.35193
1740493971305,0.25079262,2.8526914,10.250176
1740493971309,0.20829555,2.7377696,10.16578
1740493971314,0.16639702,2.7252002,10.197504
1740493971320,0.12270284,2.8089972,10.205883
1740493971325,0.05925649,2.8652608,10.152014
1740493971329,0.008379706,2.8754363,10.073604
1740493971336,-0.02932897,2.8646624,9.991602
1740493971340,-0.079008654,2.8365304,9.913791
1740493971345,-0.11851298,2.8275523,9.8276
1740493971349,-0.16699557,2.8329391,9.736021
1740493971354,-0.21906945,2.8748376,9.630676
1740493971359,-0.26276365,2.9113493,9.539098
1740493971364,-0.272939,2.9311013,9.462483
1740493971369,-0.23942018,2.9454668,9.428965
1740493971374,-0.207697,2.9700072,9.487623
1740493971379,-0.20171149,2.9933507,9.523536
1740493971384,-0.17357962,2.9963434,9.595362
1740493971389,-0.15502456,3.007716,9.689334
1740493971394,-0.14425065,3.0029275,9.737817
1740493971399,-0.110731825,2.9706059,9.822811
1740493971404,-0.033518825,2.9203274,9.942521
1740493971409,0.010175358,2.8927941,10.029311
1740493971414,0.06284779,2.926313,10.116699
1740493971419,0.11851298,2.9586349,10.189124
1740493971424,0.12928689,2.9831753,10.185533
1740493971429,0.142455,2.9993362,10.193314
1740493971435,0.13946225,2.9813797,10.175956
1740493971439,0.14425065,3.0184898,10.101735
1740493971444,0.14844051,3.007716,9.958682
1740493971448,0.17238252,3.0017304,9.880272
1740493971453,0.16699557,3.0017304,9.855133
1740493971459,0.10295067,2.9861681,9.764751
1740493971463,0.10055647,2.9771898,9.737817
1740493971468,0.095768064,2.9652188,9.727641
1740493971473,0.089184016,2.9741971,9.730635
1740493971478,0.08379706,2.980781,9.683948
1740493971484,0.08559271,2.996942,9.606135
1740493971488,0.08439561,2.9963434,9.593566
1740493971493,0.13826515,2.9903579,9.639056
1740493971498,0.15502456,3.0148985,9.631275
1740493971504,0.17896658,3.0142999,9.629479
1740493971508,0.1945289,3.020884,9.646837
1740493971513,0.18974048,3.028665,9.703101
1740493971518,0.20231004,3.0017304,9.726444
1740493971523,0.25917232,2.9843724,9.767146
1740493971528,0.2896984,2.9580362,9.8276
1740493971533,0.3405752,2.9484594,9.921572
1740493971537,0.3573346,2.966416,9.9790325
1740493971542,0.32441434,2.9759927,10.022128
1740493971547,0.2777274,2.955642,10.031705
1740493971552,0.25617957,2.9388826,10.070611
1740493971557,0.2801216,2.8999767,10.109517
1740493971562,0.30825347,2.885013,10.115502
1740493971567,0.3333926,2.8760347,10.125079
1740493971572,0.37708676,2.902371,10.129868
1740493971577,0.38486794,2.8862102,10.150817
1740493971582,0.40701428,2.8999767,10.1226845
1740493971586,0.38965634,2.9334955,10.110714
1740493971592,0.36870706,2.9251158,10.09994
1740493971597,0.3513491,2.919729,10.049063
1740493971602,0.3345897,2.9113493,10.009559
1740493971607,0.29867667,2.8963854,9.977836
1740493971611,0.29269117,2.8975825,9.9790325
1740493971617,0.25737667,2.920926,9.931149
1740493971621,0.1945289,2.9388826,9.932944
1740493971627,0.1945289,2.9364884,9.916783
1740493971631,0.18555063,2.9287071,9.928755
1740493971637,0.21547815,2.9125464,9.951499
1740493971641,0.24720132,2.9221232,9.904813
1740493971646,0.28311434,2.9322984,9.840768
1740493971651,0.30346507,2.9538465,9.831191
1740493971656,0.31184477,2.9939492,9.72824
1740493971661,0.32441434,2.9987376,9.715072
1740493971666,0.30585927,2.9622262,9.6845455
1740493971671,0.29807812,2.947861,9.640852
1740493971677,0.3238158,2.9640217,9.613318
1740493971681,0.320823,2.9741971,9.645041
1740493971686,0.3393781,3.0142999,9.615114
1740493971693,0.3561375,3.0178912,9.603143
1740493971696,0.40043023,3.0322564,9.60853
1740493971706,0.4285621,3.0346506,9.625289
1740493971707,0.47225627,3.015497,9.60853
1740493971711,0.50876784,3.0232782,9.613917
1740493971716,0.50876784,3.0232782,9.613917
1740493971725,0.504578,3.0298622,9.569026
1740493971726,0.4997896,3.0334535,9.548675
1740493971730,0.48243165,3.0346506,9.533113
1740493971735,0.4782418,3.0268695,9.502586
1740493971740,0.43394905,3.0256724,9.490616
1740493971745,0.37349546,3.0119057,9.503185
1740493971750,0.3369839,3.0101101,9.528324
1740493971755,0.2825158,3.0148985,9.496002
1740493971760,0.22385786,3.015497,9.590573
1740493971765,0.20410569,3.0113072,9.658808
1740493971770,0.18854338,2.9975405,9.719262
1740493971775,0.17477672,3.0017304,9.770139
1740493971780,0.17357962,2.9939492,9.807249
1740493971788,0.18076223,2.9951463,9.870096
1740493971789,0.23822308,3.0083144,9.849147
1740493971795,0.29029694,3.020884,9.866506
1740493971799,0.3489549,3.0334535,9.886856
1740493971805,0.42556936,3.0490158,9.901819
1740493971809,0.44771573,3.0508115,9.932345
1740493971820,0.5105635,3.0202854,10.061034
1740493971821,0.5105635,3.0202854,10.061034
1740493971825,0.53330845,3.0304608,10.221446
1740493971829,0.4794389,3.0041246,10.328587
1740493971834,0.362123,2.992752,10.3453455
1740493971838,0.25677812,2.9508536,10.30225
1740493971843,0.21068975,2.791639,10.186729
1740493971848,0.11432313,2.7102363,10.063428
1740493971853,-0.01436521,2.7581203,9.883265
1740493971858,-0.14963761,2.8760347,9.664195
1740493971862,-0.24480712,2.956839,9.380483
1740493971867,-0.44232875,3.1693244,8.928576
1740493971873,-0.46387658,3.3237505,8.857349
1740493971882,-0.4914099,3.2345665,8.9279785
1740493971883,-0.29747957,3.0346506,8.933365
1740493971887,0.009576807,2.8353333,9.026739
1740493971893,0.2825158,2.7084408,9.311649
1740493971897,0.4201824,2.7090392,9.691729
1740493971902,0.4854244,2.7934349,9.929353
1740493971907,0.5303157,2.8844144,10.058042
1740493971912,0.6003461,2.9412768,10.144831
1740493971916,0.62488663,2.9897594,10.251373
1740493971921,0.63087213,3.0322564,10.192117
1740493971926,0.5883751,3.0148985,10.110115
1740493971932,0.46746787,3.003526,10.011953
1740493971936,0.30286652,3.0095115,9.962274
1740493971941,0.14065935,3.0556,10.00896
1740493971946,0.06344634,3.0873232,10.042479
1740493971951,0.09756372,3.0705638,10.160394
