1740493974520,1.0779893,4.221576,8.831013
1740493974526,1.0833763,4.180875,8.874707
1740493974530,1.1067197,4.1503487,8.911219
1740493974535,1.122282,4.148553,8.909423
1740493974539,1.0833763,4.144363,8.933365
1740493974545,1.0169371,4.1024647,8.901043
1740493974549,0.9475053,4.100669,8.896853
1740493974555,0.84455466,4.1371803,8.926183
1740493974560,0.7320272,4.1545386,9.012374
1740493974564,0.6362591,4.173692,9.033323
1740493974569,0.5327099,4.152743,9.060258
1740493974575,0.43514615,4.110844,9.077017
1740493974579,0.35673606,4.0904937,9.0716305
1740493974584,0.31423897,4.0857053,9.04709
1740493974589,0.2669535,4.0701427,9.018958
1740493974595,0.26874915,4.0282445,9.026739
1740493974599,0.27832595,3.9983168,9.010578
1740493974604,0.2717419,3.958214,9.036316
1740493974609,0.24420857,3.9360676,9.059061
1740493974614,0.25498247,3.927688,9.068039
1740493974619,0.30765492,3.9073372,9.08001
1740493974624,0.3441665,3.8486793,9.040505
1740493974628,0.3681085,3.8187518,9.001001
1740493974634,0.3645172,3.8307228,8.949526
1740493974639,0.28431144,3.8594532,8.998009
1740493974643,0.20709845,3.879804,9.006389
1740493974648,0.18734628,3.9091327,8.973468
1740493974654,0.2160767,3.8905778,8.967483
1740493974658,0.23403321,3.86484,8.98903
1740493974663,0.25318682,3.8744168,8.959702
1740493974668,0.2753332,3.9258924,8.986636
1740493974673,0.29807812,3.946243,9.018359
1740493974678,0.36631286,3.9414546,9.043498
1740493974683,0.45429978,3.918111,9.101558
1740493974688,0.5189432,3.9324763,9.157822
1740493974694,0.5979519,3.9683893,9.197326
1740493974698,0.6452374,4.0066967,9.287108
1740493974712,0.670975,4.0695443,9.3583355
1740493974712,0.6751649,4.097078,9.467272
1740493974715,0.6769605,4.0904937,9.598953
1740493974718,0.6823475,4.0839095,9.762358
1740493974723,0.6967127,4.0707417,9.924564
1740493974728,0.7320272,4.039018,10.028113
1740493974733,0.7733272,4.0222588,10.08318
1740493974738,0.7942764,4.004901,10.226832
1740493974743,0.80325466,4.0001125,10.284892
1740493974749,0.8206126,3.9396589,10.33098
1740493974752,0.84096336,3.8786068,10.405201
1740493974757,0.8571242,3.8139634,10.432136
1740493974762,0.7823054,3.7642837,10.4171715
1740493974768,0.7140707,3.7379475,10.468647
1740493974773,0.65182143,3.750517,10.501567
1740493974777,0.63087213,3.728969,10.598533
1740493974782,0.6739678,3.655946,10.613496
1740493974787,0.6572084,3.6116533,10.5440645
1740493974792,0.66379243,3.5930982,10.466252
1740493974797,0.6332663,3.5565867,10.36031
1740493974802,0.58657944,3.58412,10.322002
1740493974807,0.5315128,3.6457705,10.21546
1740493974812,0.4854244,3.6703112,10.188525
1740493974816,0.47405192,3.6984432,10.15381
1740493974822,0.5105635,3.7056258,10.183737
1740493974826,0.59615624,3.726575,10.1861315
1740493974832,0.676362,3.7403417,10.200497
1740493974839,0.7374141,3.726575,10.21965
1740493974842,0.74519527,3.7259765,10.250774
1740493974846,0.79607207,3.6990416,10.272921
1740493974852,0.79607207,3.6990416,10.272921
1740493974856,0.84934306,3.667917,10.317812
1740493974861,0.9163807,3.5996823,10.374675
1740493974866,0.94331545,3.5488055,10.36031
1740493974871,0.9151836,3.5218706,10.371682
1740493974876,0.83737206,3.5104983,10.344747
1740493974881,0.79128367,3.4943373,10.331579
1740493974886,0.74399817,3.4506433,10.304645
1740493974891,0.6919243,3.38181,10.282497
1740493974896,0.6410475,3.3452983,10.234015
1740493974901,0.5734113,3.3123782,10.210073
1740493974906,0.50278234,3.269881,10.192716
1740493974911,0.43514615,3.2513258,10.108918
1740493974917,0.36272156,3.1794999,10.062231
1740493974923,0.29269117,3.1010897,10.0269165
1740493974926,0.23223756,3.0430303,10.016143
1740493974932,0.22565351,2.9712043,9.928755
1740493974936,0.17776948,2.9017725,9.867104
1740493974941,0.14784196,2.8550856,9.800066
1740493974945,0.076015905,2.8137856,9.768942
1740493974951,0.010175358,2.7778726,9.695918
1740493974955,-0.03232172,2.7509377,9.688736
1740493974960,-0.046686932,2.7365725,9.6528225
1740493974966,-0.090979666,2.734777,9.592968
1740493974970,-0.1400608,2.7635074,9.603143
1740493974975,-0.19512744,2.779668,9.645041
1740493974980,-0.24660277,2.7868507,9.72824
1740493974988,-0.30885202,2.755726,9.834184
1740493974991,-0.3705027,2.717419,9.910199
1740493974995,-0.4225766,2.6856956,9.975441
1740493975001,-0.47105917,2.6258407,10.043077
1740493975006,-0.5291186,2.554613,10.073005
1740493975011,-0.57281274,2.492364,10.13705
1740493975016,-0.6332663,2.4594438,10.213066
1740493975020,-0.7248446,2.421735,10.271724
1740493975025,-0.78649527,2.4396915,10.375273
1740493975030,-0.8643068,2.4121583,10.418368
1740493975035,-0.90859956,2.3798366,10.470443
1740493975040,-0.92775315,2.3439236,10.515932
1740493975044,-0.93972415,2.3116016,10.602722
1740493975050,-0.95827925,2.3301568,10.632051
1740493975054,-0.9720459,2.3439236,10.600926
1740493975060,-1.009156,2.35769,10.551846
1740493975064,-1.0055647,2.331354,10.427347
1740493975069,-0.99419224,2.295441,10.317214
1740493975075,-0.9804256,2.260725,10.166379
1740493975080,-0.9923966,2.2637177,9.9790325
1740493975084,-1.0085574,2.2637177,9.837775
1740493975090,-1.0324994,2.2601264,9.698313
1740493975094,-1.0133458,2.2122424,9.564836
1740493975102,-1.0319009,2.1984756,9.470264
1740493975105,-1.0402806,2.179322,9.36911
1740493975109,-1.0821792,2.179322,9.277532
1740493975114,-1.1558008,2.167351,9.27394
1740493975119,-1.1869255,2.1637597,9.259575
1740493975124,-1.1821371,2.142212,9.297882
1740493975129,-1.1821371,2.1170728,9.354745
1740493975134,-1.2042835,2.1098902,9.464279
1740493975143,-1.1887212,2.1200657,9.552266
1740493975146,-1.1198878,2.154183,9.706693
1740493975149,-1.0803835,2.1745336,9.837176
1740493975154,-1.0205284,2.212841,9.947908
1740493975159,-0.9247604,2.2768857,10.010756
1740493975163,-0.88405895,2.3505075,10.051457
1740493975169,-0.82121116,2.4211364,10.207081
1740493975173,-0.7098808,2.472612,10.322002
1740493975178,-0.62728083,2.56419,10.450092
1740493975183,-0.54049104,2.6378117,10.609306
1740493975189,-0.44771573,2.7635074,10.76852
1740493975193,-0.33279404,2.830545,10.875063
1740493975198,-0.23702596,2.879626,11.00435
1740493975208,-0.1352724,2.919729,11.088745
1740493975209,-0.061650693,2.9460652,11.150395
1740493975212,0.0,2.9735985,11.206061
1740493975217,0.05925649,3.0160956,11.1970825
1740493975228,0.065242,3.0418332,11.106702
1740493975229,0.074818805,3.0561984,11.021708
1740493975233,0.076015905,3.072958,10.926538
1740493975237,0.04129998,3.0538042,10.809222
1740493975242,0.0,3.032855,10.697892
1740493975247,-0.06284779,3.019687,10.549451
1740493975252,-0.13108255,2.9873652,10.386047
1740493975257,-0.20590134,2.9682117,10.23222
1740493975262,-0.23702596,2.9412768,10.103531
1740493975267,-0.27593175,2.9173348,10.018537
1740493975271,-0.31004912,2.92751,9.904214
1740493975276,-0.33877954,2.9131448,9.781511
1740493975281,-0.3800795,2.9227216,9.740809
1740493975288,-0.4357447,2.9370868,9.695918
1740493975291,-0.47884035,2.9550436,9.639056
1740493975296,-0.53450555,2.92751,9.624691
1740493975301,-0.5650316,2.9113493,9.616311
1740493975307,-0.5859809,2.9095535,9.630077
1740493975311,-0.58657944,2.8880057,9.613917
1740493975316,-0.59615624,2.846706,9.526528
1740493975321,-0.6063316,2.8287494,9.472659
1740493975326,-0.63087213,2.8233624,9.371504
1740493975331,-0.65541273,2.7886465,9.231443
1740493975336,-0.700304,2.753332,9.142858
1740493975341,-0.7751228,2.7485435,9.024943
1740493975346,-0.79726917,2.755726,8.89805
1740493975351,-0.7930793,2.7455509,8.8328085
1740493975356,-0.8170213,2.731784,8.722675
1740493975361,-0.8379706,2.730587,8.608353
1740493975366,-0.85054016,2.7401638,8.498817
1740493975370,-0.8535329,2.7329812,8.423999
1740493975375,-0.86729956,2.7617116,8.358757
1740493975380,-0.9032126,2.779668,8.327033
1740493975385,-0.9576807,2.8149827,8.321647
1740493975390,-0.98461545,2.830545,8.373122
1740493975395,-1.0163386,2.8760347,8.430583
1740493975400,-1.0247183,2.92751,8.50181
1740493975405,-1.0181342,2.9759927,8.570643
1740493975410,-0.98102415,3.0298622,8.706514
1740493975415,-0.96785605,3.0759506,8.836999
1740493975420,-0.97862995,3.132813,8.978855
1740493975425,-0.9756372,3.2034419,9.127894
1740493975430,-0.95468795,3.2746694,9.309255
1740493975435,-0.92535895,3.317765,9.411008
1740493975439,-0.8738836,3.3662477,9.524135
1740493975445,-0.83617496,3.4009635,9.643246
1740493975450,-0.80804306,3.4464533,9.697714
1740493975454,-0.7978677,3.5164838,9.789292
1740493975459,-0.801459,3.5685577,9.896433
1740493975464,-0.7966706,3.6355953,10.023325
1740493975469,-0.7799112,3.6888664,10.201694
1740493975474,-0.7703344,3.7642837,10.362105
1740493975479,-0.76434886,3.828927,10.511144
1740493975485,-0.7697359,3.870227,10.621876
1740493975489,-0.78050977,3.8857894,10.762535
1740493975494,-0.8086416,3.9031472,10.83077
1740493975499,-0.85054016,3.9103298,10.832565
1740493975505,-0.9259575,3.9193082,10.836157
1740493975511,-0.9876082,3.9564183,10.809821
1740493975514,-1.0528502,3.9630024,10.7912655
1740493975519,-1.0935516,3.9797618,10.79785
1740493975524,-1.1097125,3.9917328,10.737396
1740493975529,-1.1097125,3.9612067,10.710462
1740493975534,-1.0809821,3.9516299,10.660782
1740493975539,-1.0714053,3.916914,10.612898
1740493975545,-1.0594343,3.9109285,10.483611
1740493975549,-1.0402806,3.8863878,10.371083
1740493975557,-1.0139444,3.8780081,10.250176
1740493975561,-1.002572,3.8780081,10.098145
1740493975566,-0.98102415,3.8839936,9.993398
1740493975569,-0.94930094,3.8827965,9.842564
1740493975573,-0.9403227,3.858256,9.702502
1740493975578,-0.91578215,3.840898,9.603143
1740493975584,-0.8750807,3.821146,9.446322
1740493975588,-0.83856916,3.8181531,9.353547
1740493975593,-0.79966336,3.8355112,9.274539
1740493975598,-0.7613561,3.8486793,9.156625
1740493975603,-0.74399817,3.8576574,9.074623
1740493975607,-0.7757214,3.8546648,9.044696
1740493975613,-0.7846996,3.843891,9.028535
1740493975617,-0.79367787,3.82773,8.968679
1740493975623,-0.80205756,3.8325183,8.953117
1740493975627,-0.777517,3.8127663,8.966286
1740493975632,-0.75836337,3.8247373,8.986636
1740493975637,-0.7320272,3.819949,9.062652
1740493975643,-0.7164649,3.8379054,9.09258
1740493975647,-0.70509243,3.8744168,9.1255
1740493975652,-0.6619968,3.9085343,9.139266
1740493975657,-0.6572084,3.9414546,9.197925
1740493975664,-0.62129533,3.9839516,9.251794
1740493975667,-0.5919664,4.0282445,9.352949
1740493975672,-0.53091425,4.0467997,9.472659
1740493975677,-0.4758476,4.073136,9.592369
1740493975683,-0.43754035,4.0773253,9.763555
1740493975687,-0.4405331,4.1036615,9.903615
1740493975692,-0.44592008,4.120421,10.049662
1740493975698,-0.48482585,4.068946,10.234613
1740493975704,-0.5243302,4.0438066,10.353725
1740493975709,-0.5781997,4.0120835,10.466252
1740493975719,-0.64942724,3.989937,10.534488
1740493975720,-0.7248446,3.9324763,10.553042
1740493975725,-0.79367787,3.928885,10.522516
1740493975726,-0.8331822,3.9121256,10.5602255
1740493975731,-0.8798691,3.899556,10.549451
1740493975736,-0.90261406,3.8869865,10.5680065
1740493975741,-0.8822633,3.8923733,10.629657
1740493975747,-0.81343,3.8923733,10.796653
1740493975751,-0.7380127,3.8588545,11.017518
1740493975755,-0.6877344,3.82773,11.268311
1740493975761,-0.61112,3.7828386,11.555016
1740493975766,-0.5530606,3.728969,11.789648
1740493975771,-0.4357447,3.6762967,12.056602
1740493975776,-0.35075054,3.6152446,12.338518
1740493975781,-0.29149407,3.5458126,12.657546
1740493975786,-0.20829555,3.4464533,12.887988
1740493975791,-0.093972415,3.329736,13.091495
1740493975796,0.034715924,3.2118216,13.245322
1740493975801,0.21547815,3.0502129,13.391967
1740493975806,0.39624038,2.9101522,13.430274
1740493975811,0.5805939,2.7964275,13.413515
1740493975816,0.75357497,2.6677392,13.280637
1740493975821,0.8762778,2.569577,13.078327
1740493975826,1.0408791,2.4666264,12.9005575
1740493975830,1.1701661,2.3630772,12.740745
1740493975836,1.2892777,2.3110032,12.559982
1740493975841,1.3838485,2.211644,12.394782
1740493975846,1.4227544,2.1386206,12.269685
1740493975850,1.4562732,2.079364,12.155961
1740493975856,1.4652514,1.9919758,12.10269
1740493975861,1.4814123,1.9482816,12.03266
1740493975865,1.4736311,1.8830396,11.981184
1740493975870,1.4915876,1.8501194,11.950658
1740493975875,1.4736311,1.8231846,11.944074
1740493975880,1.4359225,1.7753005,11.94168
1740493975885,1.3557167,1.7375919,11.979388
1740493975890,1.246182,1.7052702,11.957242
1740493975895,1.1971009,1.6938977,11.997345
1740493975900,1.1534066,1.6663644,12.033856
1740493975904,1.1133038,1.6555905,12.161347
1740493975909,1.0965444,1.6585833,12.310387
1740493975914,1.1264719,1.650802,12.508507
1740493975919,1.1558008,1.654992,12.653356
1740493975924,1.2336124,1.644218,12.748526
1740493975929,1.335366,1.6190789,12.814366
1740493975935,1.4490906,1.5735891,12.797606
1740493975939,1.5861586,1.5622166,12.743737
1740493975944,1.6998832,1.5616181,12.654553
1740493975949,1.8309658,1.5286977,12.536638
1740493975954,1.9075803,1.5472529,12.358271
1740493975959,1.9446903,1.5646108,12.10269
1740493975964,1.9716251,1.5771804,11.848306
1740493975969,1.9931729,1.5969325,11.591528
1740493975974,2.0171149,1.6041151,11.399991
1740493975979,2.0560207,1.5837644,11.199477
1740493975984,2.100912,1.5861586,11.061212
1740493975988,2.1230583,1.5400703,10.925341
1740493975993,2.15957,1.5298948,10.800244
1740493975999,2.1894975,1.5095441,10.6877165
1740493976003,2.2613235,1.4718355,10.584765
1740493976008,2.3157916,1.429937,10.447698
1740493976013,2.4025815,1.3724761,10.245388
1740493976019,2.48578,1.3215994,9.999383
1740493976023,2.5504234,1.299453,9.688736
1740493976028,2.6030958,1.2653356,9.361329
1740493976034,2.6324248,1.287482,9.063251
1740493976038,2.6366146,1.3066356,8.7609825
1740493976043,2.6192567,1.3192052,8.4904375
1740493976048,2.6007016,1.3221979,8.251018
1740493976053,2.5498247,1.3263878,7.989451
1740493976058,2.5133133,1.3563153,7.805696
1740493976063,2.4408886,1.3491327,7.678205
1740493976069,2.3768437,1.3688848,7.627328
1740493976073,2.3062148,1.3281834,7.587225
1740493976077,2.2188265,1.335366,7.551312
1740493976083,2.1320367,1.340753,7.543531
1740493976087,2.0649989,1.3563153,7.6003933
1740493976092,1.9835961,1.3628993,7.6093717
1740493976097,1.9351135,1.3904326,7.6267295
1740493976102,1.8321629,1.4012065,7.647679
1740493976107,1.7567455,1.4131776,7.61835
1740493976111,1.6741456,1.4209588,7.5764513
1740493976117,1.5945383,1.4227544,7.5764513
1740493976121,1.5496471,1.4544775,7.4872675
1740493976126,1.501763,1.4862007,7.499837
1740493976131,1.4945804,1.5179238,7.45315
1740493976136,1.4730326,1.5592239,7.433996
1740493976141,1.4610616,1.654992,7.451953
1740493976146,1.4454993,1.7064673,7.4687123
1740493976151,1.4754268,1.7687165,7.529764
1740493976156,1.4981717,1.8363527,7.587225
1740493976161,1.5215151,1.8896236,7.695563
1740493976166,1.584363,1.9853917,7.8039002
1740493976171,1.6065093,2.023699,7.8170686
1740493976176,1.5879543,2.0644004,7.872135
1740493976181,1.602918,2.1278467,7.97748
1740493976186,1.584363,2.180519,8.040328
1740493976191,1.5939398,2.232593,8.054094
1740493976197,1.578976,2.2703018,8.103774
1740493976204,1.5711949,2.2816741,8.1402855
1740493976209,1.602918,2.3235726,8.162432
1740493976217,1.6101006,2.337938,8.165425
1740493976218,1.6065093,2.3642743,8.225879
1740493976224,1.5849615,2.3768437,8.256405
1740493976225,1.5263035,2.416348,8.271368
1740493976230,1.4820108,2.4510639,8.34918
1740493976235,1.4137762,2.5049336,8.421006
1740493976241,1.3599066,2.5474305,8.406042
1740493976245,1.3120226,2.5995045,8.404246
1740493976250,1.2629414,2.6114755,8.425196
1740493976256,1.1815386,2.6210523,8.438364
1740493976260,1.0977415,2.6539726,8.456919
1740493976265,1.0534488,2.6725276,8.458116
1740493976270,0.99898064,2.724003,8.449138
1740493976276,0.9636662,2.782661,8.39886
1740493976280,0.96665895,2.8496985,8.413225
1740493976285,0.96067345,2.9113493,8.388085
1740493976290,0.97623575,2.9831753,8.388684
1740493976295,0.98102415,3.0460231,8.428787
1740493976300,1.0241197,3.1070752,8.447342
1740493976305,1.050456,3.1729157,8.597578
1740493976309,1.0989386,3.2261868,8.67958
1740493976316,1.1881226,3.2734723,8.747216
1740493976320,1.2521675,3.317765,8.86513
1740493976325,1.3108255,3.359065,8.947132
1740493976335,1.3718776,3.3800142,9.018958
1740493976336,1.441908,3.4087446,9.112331
1740493976362,1.4999673,3.4213142,9.227852
1740493976365,1.560421,3.4356794,9.3978405
1740493976365,1.5711949,3.4584243,9.448717
1740493976366,1.5741876,3.4967315,9.541492
1740493976367,1.5616181,3.4979286,9.602545
1740493976367,1.5825673,3.5021186,9.634268
1740493976390,1.584363,3.4889505,9.619903
1740493976390,1.5705963,3.50571,9.639056
1740493976391,1.560421,3.5104983,9.560047
1740493976391,1.5388732,3.5350387,9.507974
1740493976392,1.4891934,3.554791,9.443929
1740493976393,1.4155718,3.590704,9.435549
1740493976418,1.3826514,3.6194344,9.424775
1740493976419,1.352724,3.6613328,9.501988
1740493976419,1.3533225,3.6661212,9.6049385
1740493976420,1.3599066,3.6595373,9.741408
1740493976420,1.3964181,3.6445735,9.927557
1740493976424,1.448492,3.6415808,10.086772
1740493976429,1.4754268,3.6373909,10.286089
1740493976490,1.5029601,3.6056678,10.548254
1740493976491,1.501763,3.5691562,10.702681
1740493976491,1.453879,3.520075,10.827179
1740493976494,1.3772645,3.4284968,10.9660425
1740493976495,1.2940661,3.3321302,11.124659
1740493976495,1.1827357,3.2309752,11.270106
1740493976496,1.0163386,3.0879216,11.450869
1740493976497,0.84216046,2.9670146,11.660959
1740493976497,0.61291564,2.8538885,11.832744
1740493976498,0.3561375,2.7694929,11.946468
1740493976498,0.11971009,2.6647465,12.13142
1740493976499,-0.107140526,2.5791538,12.280459
1740493976499,-0.31364042,2.4797945,12.410344
1740493976499,-0.47285482,2.4109612,12.4947405
1740493976508,-0.61171854,2.3289597,12.501923
1740493976509,-0.7116765,2.2535424,12.562975
1740493976522,-0.80564886,2.1428106,12.541427
1740493976523,-0.82001406,2.0213048,12.484565
1740493976523,-0.8619126,1.9015948,12.355278
1740493976527,-0.8888474,1.8064252,12.2224
1740493976532,-0.931943,1.7567455,12.121843
1740493976536,-0.9427169,1.7423803,11.959038
1740493976541,-0.931943,1.8201919,11.848905
1740493976546,-0.9139865,1.9422961,11.84232
1740493976552,-0.8870517,2.099715,11.858481
1740493976556,-0.8870517,2.099715,11.858481
1740493976561,-0.8403648,2.2649148,11.920132
1740493976567,-0.79607207,2.4690206,12.078748
1740493976571,-0.7553706,2.5971103,12.325351
1740493976576,-0.6560113,2.6671407,12.671312
1740493976581,-0.60214174,2.681506,13.010092
1740493976586,-0.5566519,2.6485856,13.355455
1740493976591,-0.6075287,2.5635915,13.649942
1740493976596,-0.6877344,2.4911668,13.892355
1740493976601,-0.8834604,2.415151,14.018051
1740493976606,-1.0929531,2.3247697,14.109031
1740493976612,-1.3024458,2.2140381,14.094067
1740493976615,-1.5209166,2.0679917,13.998299
1740493976621,-1.7304093,1.8992004,13.766061
1740493976626,-1.9099745,1.7603368,13.491326
1740493976631,-2.0290859,1.673547,13.0998745
1740493976636,-2.082357,1.6220716,12.715007
1740493976641,-2.0937295,1.5747862,12.3038025
1740493976645,-2.0488381,1.6053122,11.88781
1740493976651,-1.9303252,1.6543933,11.517307
1740493976655,-1.745373,1.726818,11.087548
1740493976661,-1.5119383,1.797447,10.716447
1740493976665,-1.2575544,1.8567034,10.311228
1740493976670,-1.0121487,1.9321208,9.913192
1740493976675,-0.79248077,2.0482395,9.537302
1740493976680,-0.60214174,2.1751323,9.221268
1740493976685,-0.415394,2.2990322,8.930971
1740493976690,-0.25917232,2.4157495,8.750209
1740493976695,-0.10235212,2.5019407,8.594585
1740493976700,0.039504327,2.5528176,8.429385
1740493976705,0.12689269,2.6312277,8.318654
1740493976710,0.18315643,2.6856956,8.143278
1740493976725,0.21547815,2.7234044,8.093599
1740493976726,0.24181437,2.7269957,8.066066
1740493976726,0.2208651,2.697667,7.989451
1740493976733,0.1945289,2.669535,7.9834657
1740493976734,0.10354923,2.6659436,7.934983
1740493976739,0.018555064,2.665345,7.9152308
1740493976746,-0.079008654,2.653374,7.952341
1740493976750,-0.22804771,2.6390088,8.002021
1740493976754,-0.33638534,2.6431987,8.078036
1740493976759,-0.43035775,2.6611552,8.118139
1740493976764,-0.5141548,2.6258407,8.213309
1740493976770,-0.57520694,2.6007016,8.297705
1740493976774,-0.60453594,2.5623944,8.405443
1740493976779,-0.6338649,2.5276785,8.485051
1740493976784,-0.6087258,2.5001452,8.529344
1740493976789,-0.6039374,2.4875755,8.525154
1740493976794,-0.61112,2.4648306,8.599973
1740493976799,-0.6147113,2.4343045,8.605958
1740493976804,-0.60333884,2.3942018,8.662222
1740493976810,-0.6171055,2.3780408,8.695741
1740493976814,-0.59855044,2.3241713,8.716091
1740493976819,-0.587178,2.3145945,8.697536
1740493976824,-0.5530606,2.2601264,8.737639
1740493976830,-0.52073884,2.211644,8.717887
1740493976835,-0.5363012,2.19249,8.70831
1740493976839,-0.53091425,2.1547816,8.65025
1740493976844,-0.5518635,2.110489,8.555081
1740493976849,-0.54767364,2.0853498,8.438962
1740493976854,-0.55964464,2.070386,8.339603
1740493976859,-0.5686229,2.0452468,8.281544
1740493976864,-0.55605334,2.042254,8.228871
1740493976868,-0.5009867,2.0386627,8.195353
1740493976873,-0.4782418,2.0099323,8.21271
1740493976880,-0.44771573,1.9752164,8.154053
1740493976883,-0.4141969,1.9476831,8.202535
1740493976888,-0.37469256,1.9315223,8.249222
1740493976893,-0.350152,1.9482816,8.302493
1740493976897,-0.3405752,1.9387048,8.367735
1740493976903,-0.31483752,1.9782091,8.50181
1740493976908,-0.2861071,2.0171149,8.634688
1740493976913,-0.24241292,2.0578163,8.820239
1740493976917,-0.18435353,2.0901382,9.012374
1740493976923,-0.16101007,2.1158757,9.188946
1740493976928,-0.16220717,2.107496,9.438541
1740493976933,-0.15622166,2.1164744,9.694721
1740493976937,-0.16759412,2.1296425,9.969456
1740493976943,-0.18195933,2.1601684,10.143634
1740493976947,-0.21308395,2.168548,10.396821
1740493976952,-0.18495208,2.1212628,10.629657
1740493976957,-0.13587095,2.1080947,10.885238
1740493976962,-0.08678981,2.0608091,11.145607
1740493976967,-0.008978256,2.0129251,11.257536
1740493976972,0.06823475,1.9931729,11.312004
1740493976977,0.15801731,1.9542671,11.317391
1740493976982,0.22984336,1.9578584,11.30961
1740493976989,0.29628247,1.9524715,11.277887
1740493976994,0.3513491,1.9500773,11.215638
1740493976998,0.3669114,1.9506758,11.184513
1740493977001,0.40940848,1.9261353,11.148601
1740493977007,0.4357447,1.939902,11.174936
1740493977011,0.49799395,1.9141643,11.240777
1740493977018,0.52492875,1.8992004,11.321581
1740493977022,0.557849,1.8614918,11.412561
1740493977027,0.58897364,1.822586,11.588534
1740493977032,0.6536171,1.7950528,11.7387705
1740493977036,0.7015011,1.7166426,11.86327
1740493977041,0.7386112,1.5903485,12.027871
1740493977047,0.7703344,1.5119383,12.185289
1740493977051,0.830788,1.4101849,12.287642
1740493977056,0.9247604,1.3150153,12.378023
1740493977061,1.0354922,1.2306197,12.442666
1740493977066,1.1569979,1.1456255,12.564172
1740493977071,1.2988545,1.0749966,12.657546
1740493977076,1.42455,1.0175357,12.716803
1740493977081,1.525705,1.0001777,12.66413
1740493977087,1.5442601,1.0582372,12.593501
1740493977091,1.5753847,1.0989386,12.434286
1740493977095,1.532289,1.1324574,12.246941
1740493977101,1.5191209,1.1833342,12.074557
1740493977105,1.5424645,1.2378023,11.866262
1740493977110,1.5688007,1.2509704,11.704055
1740493977115,1.62686,1.2509704,11.520899
1740493977120,1.6681601,1.2545617,11.428123
1740493977126,1.7585411,1.2892777,11.374253
1740493977134,1.8459295,1.3347675,11.345523
1740493977136,1.9446903,1.3796587,11.375451
1740493977140,2.0332758,1.4610616,11.447875
1740493977145,2.1110873,1.4975731,11.617864
1740493977149,2.146402,1.555034,11.7681
1740493977154,2.180519,1.6346412,12.02009
1740493977159,2.2110453,1.6681601,12.252926
1740493977164,2.2014685,1.6932992,12.534245
1740493977169,2.1242554,1.690905,12.769475
1740493977174,2.0201077,1.685518,12.992734
1740493977179,1.934515,1.638831,13.165715
1740493977186,1.8435353,1.5771804,13.327324
1740493977191,1.7998412,1.4981717,13.51048
1740493977195,1.7429788,1.376666,13.545197
1740493977199,1.7381904,1.3377602,13.454216
1740493977206,1.7465701,1.2892777,13.357251
1740493977210,1.757344,1.1671734,13.215993
1740493977218,1.8142064,1.0528502,12.955026
1740493977220,1.8884265,1.0067618,12.609063
1740493977225,1.946486,0.99299514,12.212823
1740493977231,1.9452889,0.9923966,11.854291
1740493977234,1.905186,0.9983821,11.473613
1740493977240,1.8968062,1.0402806,11.133038
1740493977246,1.9153614,1.06123,10.836157
1740493977250,1.9387048,1.1288661,10.535685
1740493977254,1.9363106,1.1971009,10.221446
1740493977260,1.9087774,1.3227965,9.958083
1740493977265,1.9255368,1.3994108,9.797672
1740493977270,1.9243397,1.4694413,9.649231
1740493977275,1.9363106,1.4969746,9.500791
1740493977280,1.9668367,1.5400703,9.369708
1740493977285,2.0045455,1.5682021,9.205706
1740493977289,2.0626047,1.6089035,9.062054
1740493977294,2.135628,1.6741456,8.859145
1740493977299,2.212841,1.6938977,8.659229
1740493977305,2.2894554,1.7202339,8.424597
1740493977308,2.3409307,1.738789,8.2516165
1740493977314,2.3852234,1.79206,8.043321
1740493977319,2.4600422,1.8435353,7.832032
1740493977325,2.5073278,1.8854338,7.7051396
1740493977330,2.5181017,1.9219455,7.5985975
1740493977334,2.5432408,1.9949685,7.4788876
1740493977339,2.5462334,2.0416555,7.405266
1740493977344,2.529474,2.0757728,7.3753386
1740493977348,2.4480712,2.0727801,7.426215
1740493977353,2.344522,2.0709844,7.4112515
1740493977359,2.1936872,2.0512323,7.423821
1740493977363,2.019509,2.0177135,7.4872675
1740493977369,1.8674773,1.9961656,7.483676
1740493977374,1.702876,1.9716251,7.5644803
1740493977378,1.5825673,1.9488802,7.645883
1740493977384,1.4598645,1.9135658,7.6943655
1740493977388,1.3652935,1.8956091,7.7703815
1740493977394,1.2904748,1.8561049,7.789535
1740493977404,1.2467805,1.8477252,7.803302
1740493977407,1.186327,1.8309658,7.759608
1740493977408,1.1731589,1.822586,7.7213006
1740493977414,1.1324574,1.8004397,7.6584525
1740493977416,1.1258733,1.8267759,7.545925
1740493977422,1.0821792,1.8608932,7.502231
1740493977426,1.050456,1.8866309,7.3992805
1740493977432,0.9911995,1.9237411,7.3286514
1740493977436,0.96426475,1.9698294,7.289746
1740493977441,0.9163807,1.9913772,7.2981253
1740493977446,0.83018947,2.0278888,7.3352356
1740493977451,0.76315176,2.0608091,7.389105
1740493977457,0.6997054,2.0829554,7.413047
1740493977462,0.65301853,2.1242554,7.5148005
1740493977473,0.62249243,2.167351,7.657854
1740493977476,0.55964464,2.2972364,7.8487916
1740493977477,0.55964464,2.2972364,7.8487916
1740493977487,0.5422867,2.35769,7.9266033
1740493977488,0.5141548,2.4241292,8.028357
1740493977491,0.51714754,2.5288756,8.109161
1740493977496,0.49559975,2.6180596,8.218098
1740493977501,0.5069722,2.6928782,8.300098
1740493977506,0.521936,2.7551277,8.313267
1740493977511,0.56982,2.7742813,8.381501
1740493977516,0.6428431,2.8491,8.43178
1740493977522,0.6919243,2.8892028,8.483255
1740493977525,0.74519527,2.9735985,8.534132
1740493977530,0.8619126,2.9951463,8.617929
1740493977535,0.93493575,3.0460231,8.695741
1740493977541,0.97025025,3.0992942,8.718486
1740493977545,0.973243,3.1160536,8.72507
1740493977550,0.96905315,3.1052797,8.71669
1740493977560,0.9504981,3.0933087,8.770559
1740493977561,0.9564836,3.0699651,8.743625
1740493977565,0.9223662,3.0951042,8.703522
1740493977570,0.9223662,3.0771477,8.693346
1740493977575,0.91219085,3.0951042,8.725668
1740493977580,0.8702923,3.1040826,8.803479
1740493977585,0.83138657,3.1106665,8.895657
1740493977590,0.75477207,3.1262288,9.020754
1740493977595,0.7038953,3.1304188,9.173384
1740493977600,0.65242,3.1352072,9.311649
1740493977606,0.5674258,3.1370027,9.462483
1740493977610,0.50158525,3.1190462,9.634268
1740493977615,0.46746787,3.1142578,9.768343
1740493977620,0.44113165,3.093907,9.868899
1740493977624,0.3776853,3.0998926,10.033501
1740493977630,0.26156655,3.120842,10.15381
1740493977635,0.1436521,3.1196449,10.316016
1740493977640,0.05746084,3.0909145,10.483611
1740493977645,-0.031124622,3.0621839,10.680533
1740493977649,-0.13108255,3.0250738,10.8469305
1740493977655,-0.18614918,2.967613,11.031284
1740493977661,-0.2172738,2.8951883,11.241376
1740493977664,-0.2693477,2.7856536,11.411364
1740493977670,-0.29807812,2.7102363,11.502942
1740493977675,-0.32142156,2.6198552,11.56579
1740493977681,-0.33877954,2.5408466,11.609484
1740493977686,-0.35673606,2.4929626,11.597513
1740493977690,-0.32022446,2.463035,11.514315
1740493977695,-0.29388827,2.4211364,11.460445
1740493977701,-0.27234045,2.369661,11.3551
1740493977703,-0.23463176,2.331354,11.36348
1740493977710,-0.18255788,2.2810757,11.368268
1740493977714,-0.11312603,2.2349873,11.456854
1740493977724,-0.02873042,2.211644,11.621455
1740493977726,0.044891283,2.2212207,11.886613
1740493977728,0.076614454,2.2631192,12.166136
1740493977735,0.08798691,2.3038206,12.565369
1740493977739,0.13467385,2.3050177,12.97777
1740493977743,0.108936176,2.2720973,13.365032
1740493977748,0.030526072,2.2990322,13.71698
1740493977755,-0.088585466,2.2960393,14.089278
1740493977757,-0.2220622,2.2936451,14.407108
1740493977762,-0.34117374,2.2559366,14.699202
1740493977767,-0.4782418,2.2122424,14.90211
1740493977772,-0.62847793,2.1272483,15.034988
1740493977777,-0.81402856,2.0021513,15.14153
1740493977783,-0.96426475,1.8507179,15.176246
1740493977787,-1.1438298,1.7316064,15.046361
1740493977792,-1.2725182,1.5532384,14.870985
1740493977797,-1.3958195,1.4275428,14.583681
1740493977802,-1.5107412,1.2808979,14.189237
1740493977807,-1.5502456,1.186327,13.661315
1740493977812,-1.5478514,1.1522095,13.105262
1740493977818,-1.5047557,1.1659763,12.603676
1740493977824,-1.38325,1.1821371,12.130821
1740493977828,-1.2731167,1.2617443,11.656171
1740493977832,-1.1360487,1.3569138,11.23539
1740493977837,-0.9696517,1.4383167,10.844537
1740493977843,-0.8122329,1.4927847,10.481216
1740493977847,-0.63206923,1.5352819,10.172364
1740493977852,-0.4997896,1.6059108,9.852738
1740493977857,-0.36032736,1.6627731,9.560646
1740493977862,-0.25318682,1.6921021,9.346365
1740493977869,-0.16879122,1.7489643,9.216479
1740493977871,-0.095768064,1.757344,9.036914
1740493977877,-0.05267244,1.7788919,8.948329
1740493977882,-0.011372458,1.8297687,8.853159
1740493977887,0.040102877,1.8788497,8.774749
1740493977892,0.089184016,1.9141643,8.759187
1740493977897,0.11971009,1.95307,8.777742
1740493977902,0.1448492,1.9865888,8.807071
1740493977906,0.15263036,2.0278888,8.890868
1740493977911,0.18495208,2.0817583,8.915408
1740493977916,0.22984336,2.144606,8.945336
1740493977921,0.20709845,2.202067,9.009381
1740493977926,0.24121583,2.2439656,9.006389
1740493977931,0.30346507,2.2643163,8.973468
1740493977936,0.36511576,2.2379801,8.9519205
1740493977941,0.39384618,2.2110453,8.88608
1740493977945,0.44951138,2.2092497,8.831612
1740493977951,0.4878186,2.19668,8.689157
1740493977956,0.45010993,2.1763294,8.541314
1740493977960,0.37229836,2.160767,8.377911
1740493977965,0.29867667,2.1218612,8.213309
1740493977970,0.21068975,2.0757728,8.002021
1740493977976,0.10594343,2.0470424,7.852383
1740493977980,0.0035913025,2.018312,7.671621
1740493977987,-0.08200141,1.9590555,7.5692687
1740493977990,-0.15861586,1.9135658,7.4256167
1740493977995,-0.23283611,1.9069817,7.3244615
1740493978000,-0.31543607,1.9015948,7.277775
1740493978005,-0.43394905,1.8896236,7.315483
1740493978010,-0.5033809,1.8686744,7.327454
1740493978015,-0.5686229,1.8680758,7.358579
1740493978020,-0.5883751,1.869273,7.4226236
1740493978025,-0.6039374,1.8734628,7.524976
1740493978030,-0.6242881,1.8854338,7.666234
1740493978035,-0.62129533,1.8938135,7.825448
1740493978039,-0.62728083,1.9381063,7.9224133
1740493978044,-0.62129533,1.9686323,8.045116
1740493978049,-0.5722142,2.011728,8.252214
1740493978054,-0.4985925,2.0380642,8.383896
1740493978059,-0.46507367,2.0638018,8.528745
1740493978064,-0.40880993,2.0632033,8.5778265
1740493978069,-0.3752911,2.0721815,8.620323
1740493978075,-0.32561144,2.111686,8.702923
1740493978079,-0.29209262,2.1649568,8.746617
1740493978084,-0.24839842,2.1948843,8.70831
1740493978089,-0.22445641,2.1984756,8.730456
1740493978094,-0.18136078,2.2062569,8.813056
1740493978099,-0.12389994,2.2278047,8.917803
1740493978104,-0.094570965,2.2529438,9.074623
1740493978109,-0.10115502,2.2774844,9.198523
1740493978114,-0.092176765,2.3157916,9.365519
1740493978119,-0.088585466,2.3301568,9.515755
1740493978123,-0.035314474,2.3535004,9.704897
1740493978128,0.0053869537,2.3942018,9.89344
1740493978134,0.0676362,2.404377,10.0987425
1740493978138,0.094570965,2.3995886,10.322002
1740493978143,0.130484,2.3983915,10.565612
1740493978148,0.17776948,2.4187422,10.845734
1740493978154,0.25977087,2.4133554,11.173141
1740493978158,0.3274071,2.3708582,11.479
1740493978163,0.40521863,2.319383,11.798027
1740493978168,0.48722005,2.2667105,12.011111
1740493978174,0.5758055,2.2427685,12.33373
1740493978178,0.6428431,2.232593,12.643181
1740493978183,0.6703765,2.1865046,12.894572
1740493978188,0.7248446,2.1021092,13.069348
1740493978193,0.7763199,2.023699,13.200431
1740493978198,0.82899237,1.9081788,13.329718
1740493978204,0.8655039,1.8052281,13.406332
1740493978208,0.89543146,1.7130513,13.427281
1740493978213,0.9115923,1.632247,13.455414
1740493978218,0.84814596,1.5490485,13.484742
1740493978225,0.82480246,1.4939818,13.4500265
1740493978229,0.78649527,1.483208,13.342287
1740493978233,0.7679402,1.496376,13.217191
1740493978237,0.8194155,1.453879,13.086706
1740493978242,0.919972,1.4077905,12.920908
1740493978247,1.0205284,1.3748703,12.704233
1740493978255,1.1252748,1.3575124,12.497134
1740493978258,1.2234371,1.3634979,12.238561
1740493978262,1.2898762,1.4131776,12.025476
1740493978267,1.400608,1.4586674,11.835736
1740493978272,1.5149311,1.4466964,11.719019
1740493978277,1.6843209,1.4251486,11.567586
1740493978282,1.8166006,1.3922282,11.496957
1740493978287,1.8872294,1.4089876,11.422736
1740493978292,1.9375077,1.4317327,11.379641
1740493978297,1.9572599,1.4670471,11.3964
1740493978302,2.022502,1.484405,11.461043
1740493978306,2.022502,1.484405,11.461043
1740493978312,2.0362685,1.4873978,11.622652
1740493978316,2.0039468,1.4526819,11.77229
1740493978321,1.929128,1.4598645,11.981184
1740493978326,1.822586,1.4820108,12.21402
1740493978332,1.5879543,1.5460558,12.682685
1740493978337,1.5879543,1.5460558,12.682685
1740493978342,1.4796166,1.5334862,12.823344
1740493978346,1.364695,1.4838065,12.969391
1740493978352,1.2880806,1.371279,13.054983
1740493978357,1.2270284,1.2467805,13.002311
1740493978361,1.1767502,1.0953473,12.882002
1740493978366,1.1145009,0.97623575,12.622829
1740493978398,1.079785,0.88765025,12.20145
1740493978398,1.0809821,0.8499416,11.800422
1740493978399,1.0516531,0.9056068,11.297041
1740493978399,1.0031705,0.9959879,10.8385515
1740493978399,1.0139444,1.0923545,10.391434
1740493978400,1.0893618,1.1797429,9.96766
1740493978400,1.234211,1.2509704,9.588778
1740493978411,1.401805,1.3347675,9.256582
1740493978411,1.5735891,1.459266,8.959103
1740493978418,1.7298107,1.5436616,8.731653
1740493978420,1.9093759,1.6514006,8.53054
1740493978458,2.123657,1.8219875,8.4108305
1740493978458,2.369661,1.9883845,8.319252
1740493978458,2.4839842,1.9189527,8.201937
1740493978458,2.6461914,1.8914193,8.1343
1740493978459,2.7874494,1.9351135,8.06427
1740493978459,2.9418752,2.046444,7.902063
1740493978459,3.103484,2.1092918,7.789535
1740493978459,3.2160115,2.095525,7.701548
1740493978464,3.2728736,2.0362685,7.587824
1740493978472,3.2477345,1.9973627,7.4735007
1740493978481,3.116652,1.9788077,7.41185
1740493978481,2.961029,1.9722236,7.361572
1740493978485,2.8167782,1.9458874,7.404069
1740493978493,2.6868927,1.9213469,7.40347
1740493978494,2.5647886,1.8800468,7.4806833
1740493978500,2.3953989,1.8375498,7.5812397
1740493978506,2.1990743,1.8106151,7.6919713
1740493978509,2.006341,1.7567455,7.8811135
1740493978514,1.8052281,1.7543513,7.9870567
1740493978518,1.6843209,1.7411832,8.038532
1740493978524,1.5861586,1.7513585,8.109759
1740493978529,1.508347,1.7567455,8.143877
1740493978535,1.4239515,1.8171991,8.171411
1740493978541,1.3587095,1.87047,8.099585
1740493978544,1.328782,1.9482816,8.074445
1740493978550,1.3281834,1.982399,8.075643
1740493978554,1.2898762,2.067393,8.030751
1740493978560,0.985214,2.2828712,7.9248075
1740493978564,1.4185646,2.231396,7.8829093
1740493978569,1.6693572,2.1631613,7.923012
1740493978576,1.7956513,2.0937295,8.032547
1740493978578,1.893215,2.0578163,8.075044
1740493978583,1.9111716,2.11827,7.9864583
1740493978591,1.8740613,2.2523453,7.957728
1740493978592,1.7471687,2.3870192,7.9667063
1740493978599,1.6705543,2.4929626,7.9391727
1740493978603,1.5771804,2.5474305,7.9266033
1740493978609,1.5179238,2.5755625,7.880515
1740493978614,1.4047978,2.622848,7.8487916
1740493978618,1.3257892,2.682703,7.8116817
1740493978625,1.2611457,2.7257986,7.8332295
1740493978628,1.1953052,2.742558,7.8972745
1740493978633,1.1258733,2.7712884,7.9834657
1740493978643,1.0432734,2.779668,8.124125
1740493978643,0.9247604,2.806603,8.274361
1740493978647,0.801459,2.8508956,8.412626
1740493978652,0.6775591,2.891597,8.552687
1740493978658,0.5105635,2.9706059,8.747216
1740493978663,0.3573346,3.0621839,8.923788
1740493978667,0.30945057,3.1669302,9.127894
1740493978674,0.3286042,3.228581,9.317635
1740493978676,0.55246204,3.181894,9.456498
1740493978683,1.0402806,2.814384,9.254189
1740493978690,1.0013748,3.2788591,9.603143
1740493978691,0.9552865,3.7660792,9.961076
1740493978698,0.931943,4.084508,10.129868
1740493978702,0.9415198,4.155137,10.234613
1740493978707,0.98341835,4.040814,10.435727
1740493978726,1.0031705,3.9600096,10.6954975
1740493978727,0.9600749,3.9187095,11.034876
1740493978728,0.8523358,3.9145198,11.30123
1740493978728,0.66139823,3.9270895,11.51611
1740493978732,0.45609543,3.8815994,11.690289
1740493978737,0.25857377,3.7828386,11.9374895
1740493978742,0.11432313,3.6487634,12.204443
1740493978746,-0.06404489,3.555988,12.459426
1740493978752,-0.23702596,3.4488475,12.621035
1740493978756,-0.41060558,3.3925838,12.797606
1740493978761,-0.5734113,3.3572693,12.944251
1740493978766,-0.801459,3.2968156,13.071144
1740493978771,-1.0223241,3.2064347,13.210008
1740493978775,-1.1941081,3.0945058,13.211803
1740493978782,-1.30484,2.9221232,13.163919
1740493978786,-1.429937,2.7736826,13.140576
1740493978791,-1.5592239,2.6222494,13.096283
1740493978797,-1.6412252,2.4821887,13.004705
1740493978801,-1.7004818,2.3301568,12.886192
1740493978806,-1.6915035,2.1865046,12.694656
1740493978810,-1.6747441,2.0649989,12.385205
1740493978816,-1.6591818,1.9728222,12.026075
1740493978821,-1.6885108,1.9710265,11.732187
1740493978825,-1.7238252,1.9841946,11.443087
1740493978831,-1.7824832,2.0111294,11.137826
1740493978836,-1.8423382,2.0727801,10.858902
1740493978842,-1.9027919,2.0937295,10.639234
1740493978845,-1.9578584,2.0829554,10.45907
1740493978851,-1.9931729,2.0428526,10.332776
1740493978858,-2.0380642,1.9812019,10.238205
1740493978859,-2.1362264,1.9177556,10.209475
1740493978866,-2.292448,1.9087774,10.201095
1740493978870,-2.5115175,1.9201498,10.276512
1740493978875,-2.7539306,1.9063832,10.44231
1740493978880,-2.9179332,1.8620903,10.662578
1740493978886,-3.091513,1.822586,10.985794
1740493978892,-3.256713,1.7998412,11.322779
1740493978895,-3.329736,1.8297687,11.713034
1740493978900,-3.4021606,1.8794483,12.134413
1740493978905,-3.4967315,1.9590555,12.546814
1740493978909,-3.6122518,2.0644004,12.997522
1740493978915,-3.6774938,2.1577742,13.384186
1740493978921,-3.6882677,2.247557,13.772047
1740493978926,-3.6565444,2.2786815,14.08868
1740493978929,-3.5697548,2.2756886,14.378977
1740493978935,-3.447052,2.2852654,14.568119
1740493978944,-3.3249476,2.2601264,14.562133
1740493978949,-3.1543608,2.2499511,14.402919
1740493978950,-2.9616275,2.2110453,14.027029
1740493978953,-2.743755,2.2319946,13.515268
1740493978959,-2.60968,2.212841,12.898762
1740493978964,-2.52289,2.2134395,12.163742
1740493978969,-2.5300727,2.2667105,11.391612
1740493978976,-2.5001452,2.3959973,10.7116585
1740493978979,-2.4307132,2.532467,10.0664215
1740493978984,-2.2822728,2.6102784,9.521142
1740493978993,-2.1392193,2.6569653,9.085397
1740493978993,-2.0626047,2.6856956,8.772355
1740493978999,-2.094328,2.7760768,8.554482
1740493979004,-2.2140381,2.8987796,8.428188
1740493979010,-2.3229742,3.0005333,8.404845
1740493979013,-2.404377,3.0573955,8.459911
1740493979019,-2.4678235,3.0113072,8.599374
1740493979023,-2.5600002,2.896984,8.764574
1740493979029,-2.4995465,2.846706,9.071032
1740493979033,-2.3654714,2.7156234,9.375095
1740493979038,-2.2631192,2.6443958,9.631873
1740493979043,-2.1452048,2.5719712,9.821614
1740493979049,-1.9512744,2.4959552,10.010756
1740493979054,-1.827973,2.409764,10.128072
1740493979057,-1.6998832,2.3451207,10.221446
1740493979064,-1.5340848,2.2391772,10.242993
1740493979069,-1.3814543,2.1284454,10.195708
1740493979073,-1.2808979,2.1230583,9.861118
1740493979077,-1.2557588,2.1877017,9.490616
1740493979084,-1.2515689,2.0919337,9.395446
1740493979088,-1.3156139,1.9303252,9.323022
1740493979092,-1.4532804,1.8183962,9.229648
1740493979099,-1.5765818,1.7615339,9.061455
1740493979103,-1.666963,1.7357962,8.798691
1740493979109,-1.7459716,1.7657237,8.5143795
1740493979114,-1.834557,1.8513165,8.273164
1740493979119,-1.9596541,1.9566613,8.144476
1740493979125,-1.9578584,2.006341,8.0606785
1740493979127,-1.970428,2.1308396,7.86196
1740493979134,-1.99437,2.1374235,7.81647
1740493979137,-1.9021933,2.0847511,7.7853456
1740493979143,-1.8381484,1.9913772,7.755418
1740493979149,-2.1146786,1.9961656,7.6704235
1740493979153,-2.356493,2.1212628,7.629722
1740493979158,-1.8956091,1.9985598,8.054094
1740493979163,-1.4556746,1.7914615,8.435371
1740493979167,-1.174356,1.4999673,8.66701
1740493979173,-0.9367314,1.1180922,8.865729
1740493979178,-0.760159,0.8295909,9.029732
1740493979184,-0.6847417,0.6631939,9.11712
1740493979188,-0.6290765,0.62847793,9.101558
1740493979194,-0.5919664,0.6823475,8.924985
1740493979198,-0.59136784,0.7757214,8.724471
1740493979203,-0.56682724,0.93134445,8.497022
1740493979209,-0.5919664,1.0995371,8.287529
1740493979213,-0.6039374,1.3533225,8.072051
1740493979217,-0.66858083,1.6328455,7.8888946
1740493979224,-0.7565677,1.9207484,7.677606
1740493979226,-0.78050977,2.088941,7.5267715
1740493979233,-0.7769185,2.1877017,7.3986816
1740493979240,-0.7230489,2.2619221,7.3083005
1740493979243,-0.6973112,2.3540988,7.231686
1740493979247,-0.6811504,2.4588451,7.161656
1740493979251,-0.6811504,2.5450363,7.089231
1740493979256,-0.7757214,2.5983074,7.04015
1740493979261,-0.9008184,2.6264393,7.053917
1740493979266,-1.0546459,2.6629508,7.092224
1740493979273,-1.210269,2.767697,7.2604165
1740493979276,-1.3557167,2.8413188,7.4232225
1740493979284,-1.4915876,2.9131448,7.5626845
1740493979289,-1.632247,2.9759927,7.6734166
1740493979289,-1.7046716,3.0178912,7.840412
1740493979296,-1.7046716,3.0933087,8.085817
1740493979301,-1.6609775,3.164536,8.298902
1740493979305,-1.62686,3.2225955,8.515577
1740493979310,-1.6304513,3.2728736,8.746617
1740493979316,-1.6585833,3.3135753,9.016563
1740493979321,-1.6340426,3.378817,9.229049
1740493979325,-1.6364368,3.4464533,9.301474
1740493979331,-1.6861166,3.5093012,9.361927
1740493979335,-1.7441759,3.6248214,9.546281
1740493979341,-1.8070238,3.7295678,9.7084875
1740493979345,-1.8872294,3.839701,9.874885
1740493979350,-1.9668367,3.9588125,9.956287
1740493979355,-2.087744,4.0779243,10.001778
1740493979359,-2.1769278,4.1299977,10.204686
1740493979365,-2.2200236,4.1102457,10.475829
1740493979370,-2.2050598,3.982156,10.682329
1740493979375,-2.1631613,3.8815994,10.870275
1740493979385,-2.1362264,3.7828386,10.997167
1740493979385,-2.0751743,3.6846764,11.137826
1740493979390,-1.9782091,3.6116533,11.254543
1740493979393,-1.8728642,3.5404258,11.31799
1740493979399,-1.7836803,3.494936,11.387422
1740493979403,-1.6651673,3.489549,11.412561
1740493979408,-1.5496471,3.493739,11.453262
1740493979413,-1.453879,3.4638114,11.360487
1740493979418,-1.3198037,3.4518404,11.30961
1740493979424,-1.1791444,3.413533,11.125257
1740493979429,-0.997185,3.3859997,10.92594
1740493979433,-0.78649527,3.4314895,10.7116585
1740493979439,-0.62249243,3.5051112,10.509348
1740493979444,-0.4938041,3.5673606,10.286688
1740493979452,-0.38726214,3.678691,10.140042
1740493979453,-0.29448682,3.7547069,9.969456
1740493979458,-0.22325931,3.8504748,9.846753
1740493979464,-0.17118542,3.9205053,9.791088
1740493979468,-0.062249243,3.9630024,9.737218
1740493979473,0.026934769,4.011485,9.758167
1740493979479,0.16220717,4.0665517,9.830592
1740493979483,0.23343466,4.0982747,9.998785
1740493979489,0.26515785,4.1599255,10.2178545
1740493979493,0.19752164,4.2131963,10.530297
1740493979499,0.14604631,4.2425256,10.914567
1740493979504,0.08140286,4.235343,11.253945
1740493979508,0.019153614,4.148553,11.63582
1740493979513,-0.014963761,3.9971197,11.999739
1740493979519,-0.022146367,3.8510735,12.235568
1740493979523,-0.038905777,3.7325604,12.393585
1740493979527,-0.077811554,3.6290112,12.442666
1740493979533,-0.05746084,3.5380316,12.379818
1740493979538,-0.039504327,3.4626143,12.136807
1740493979543,0.0035913025,3.405752,11.761516
1740493979547,0.077811554,3.3554738,11.336545
1740493979553,0.16998832,3.3369186,10.940305
1740493979559,0.30047232,3.3411086,10.55843
1740493979562,0.48003745,3.2692823,10.173561
1740493979568,0.700304,3.2746694,9.938332
1740493979573,0.84934306,3.3554738,9.651626
1740493979577,0.9211691,3.4410665,9.377489
1740493979583,0.919972,3.5260606,9.099164
1740493979587,0.8936358,3.603872,8.847773
1740493979593,0.83497787,3.6499605,8.653842
1740493979601,0.7368156,3.6942532,8.505402
1740493979602,0.6805518,3.7391446,8.321647
1740493979606,0.62847793,3.7840357,8.1720085
1740493979611,0.53091425,3.7858315,8.066664
1740493979617,0.41299978,3.7618895,7.9810715
1740493979623,0.3298013,3.6966474,7.984064
1740493979627,0.27952304,3.6224272,8.032547
1740493979632,0.24899697,3.590704,8.21271
1740493979638,0.2861071,3.5805287,8.406042
1740493979646,0.3812766,3.5619736,8.564658
1740493979647,0.44651863,3.5577838,8.845977
1740493979651,0.47764325,3.578733,9.12131
1740493979658,0.52253455,3.6254199,9.434352
1740493979661,0.53929394,3.6733038,9.675568
1740493979665,0.46507367,3.7367504,9.763555
1740493979670,0.40581718,3.7606924,9.738416
1740493979675,0.29209262,3.8061821,9.584588
1740493979680,0.20410569,3.8379054,9.328408
1740493979685,0.10594343,3.8744168,9.082404
1740493979690,0.08020575,3.8845923,8.767567
1740493979695,0.088585466,3.945046,8.492233
1740493979700,0.10414778,3.9737763,8.182783
1740493979705,0.15502456,3.9264908,7.9445596
1740493979710,0.23582886,3.851672,7.7213006
1740493979715,0.31783026,3.8109705,7.6165543
1740493979720,0.7038953,3.6014779,7.85777
1740493979725,0.83258367,3.6236243,7.756615
1740493979733,0.58657944,4.039018,7.654263
1740493979735,0.36870706,4.4077253,7.550115
1740493979739,0.15861586,4.5364137,7.2729864
1740493979744,-0.3764882,4.560954,7.0371575
1740493979751,-1.3389573,5.12838,6.2728086
1740493979767,-0.59256494,5.4114943,5.9029045
1740493979767,0.09876082,4.985925,5.939416
1740493979767,-0.0047884034,4.4645877,5.7843914
1740493979769,-0.1328782,4.341286,5.448006
1740493979777,0.31184477,4.4568067,5.8843493
1740493979786,0.58538234,4.5118732,6.7253127
1740493979786,0.5859809,4.4783545,7.5016327
1740493979821,0.6500258,4.507085,7.9170265
1740493979821,0.736217,4.596867,8.186973
1740493979821,0.62488663,4.7614684,8.428188
1740493979821,0.44472298,4.9254713,8.565256
1740493979822,0.27712885,4.945224,8.636484
1740493979822,0.21068975,4.8344917,8.565855
1740493979822,0.10654198,4.6710877,8.362348
1740493979825,-0.088585466,4.486734,8.02297
1740493979831,-0.39923313,4.325125,7.6973586
1740493979833,-0.7745243,4.2503066,7.423821
