1740493995561,-0.66139823,-0.35913026,12.037448
1740493995567,-0.87927055,-0.50038815,11.484387
1740493995570,-1.0666169,-1.1139023,10.674548
1740493995575,-1.1713632,-1.8602947,9.679159
1740493995581,-1.0815806,-2.6018987,9.314642
1740493995585,-0.8415619,-3.2154129,9.042301
1740493995590,-0.3776853,-3.5110967,8.252813
1740493995595,-0.15023616,-3.2273839,7.2765775
1740493995600,-0.08080431,-2.5390508,6.8504095
1740493995605,0.10295067,-1.448492,7.029376
1740493995611,0.29927522,-0.19273324,7.492056
1740493995614,0.6769605,0.50757074,8.009802
1740493995620,1.3599066,0.42437226,8.224682
1740493995624,2.135628,0.014963761,8.267777
1740493995629,2.7581203,-0.29747957,8.19236
1740493995635,3.1705215,-0.5177461,8.137892
1740493995640,3.3075895,-0.6925228,8.246229
1740493995644,3.2022448,-0.7194576,8.502409
1740493995649,3.031658,-0.6667852,8.520964
1740493995655,2.8287494,-0.6368576,8.340201
1740493995661,2.5701754,-0.62249243,8.123527
1740493995665,2.2756886,-0.50637364,8.074445
1740493995670,1.9195513,-0.2753332,8.145074
1740493995675,1.6310499,-0.09995792,8.143278
1740493995679,1.3329718,0.091578215,7.984064
1740493995684,1.0217255,0.2813187,7.844003
1740493995690,0.75477207,0.4249708,7.699753
1740493995695,0.6721721,0.47644615,7.701548
1740493995700,0.78529817,0.40521863,7.6602483
1740493995705,1.086369,0.25737667,7.5531077
1740493995710,1.5227122,0.04189853,7.3627687
1740493995715,2.0428526,-0.047884032,7.341221
1740493995720,2.5761611,0.037708677,7.3549876
1740493995724,2.9783869,0.19752164,7.462128
1740493995728,3.2040405,0.39444473,7.5453267
1740493995734,3.3800142,0.56563014,7.60578
1740493995740,3.5003228,0.6679823,7.759608
1740493995744,3.5104983,0.6853402,8.090008
1740493995749,3.317765,0.6362591,8.4347725
1740493995755,3.0484173,0.5177461,8.783129
1740493995759,2.791639,0.35553896,9.109339
1740493995763,2.5252843,0.15741876,9.452907
1740493995769,2.297835,-0.025139118,9.88925
1740493995774,2.1733365,-0.09636662,10.240001
1740493995778,2.2547395,-0.10235212,10.062231
1740493995784,2.5875335,-0.077213004,9.755175
1740493995789,2.9227216,-0.06584055,10.351331
1740493995793,3.107674,-0.095169514,11.190498
1740493995799,3.3081882,-0.108936176,11.3551
1740493995803,3.4859576,-0.11492168,11.067198
1740493995809,3.5152867,-0.05267244,11.054029
1740493995821,3.478775,0.09935937,11.086351
1740493995821,3.5098996,0.22325931,10.769718
1740493995823,3.4859576,0.2088941,10.093954
1740493995828,3.4033577,0.06344634,9.431957
1740493995832,3.3728316,-0.06584055,8.973468
1740493995839,3.2674868,-0.25857377,8.50181
1740493995843,3.2453403,-0.4285621,8.083424
1740493995847,3.2333694,-0.59735334,7.6560583
1740493995853,3.9989154,-1.1186907,7.181408
1740493995858,4.6902413,-1.6089035,6.6325374
1740493995863,4.1060557,-1.4377182,6.359598
1740493995868,3.34051,-1.0324994,5.7766104
1740493995874,2.9532478,-0.83617496,4.7614684
1740493995879,2.9777884,-1.2575544,4.1120415
1740493995883,2.9640217,-2.088941,4.2640734
1740493995888,2.9454668,-2.822764,4.7297454
1740493995893,3.020884,-3.1902738,4.9374423
1740493995897,3.0639796,-3.4398694,5.0140567
1740493995903,3.1160536,-3.78643,5.1116204
1740493995908,3.2303767,-4.2556934,5.3743844
1740493995913,3.3273418,-4.7177744,5.490503
1740493995917,3.493739,-5.1140146,5.394735
1740493995923,3.7217865,-5.443816,5.1062336
1740493995927,4.525041,-5.715558,4.7614684
1740493995931,4.433463,-6.282984,4.4304705
1740493995938,4.204817,-6.855198,3.852869
1740493995943,3.9959226,-7.097611,3.2196028
1740493995948,3.675698,-7.0503254,2.381632
1740493995953,3.390788,-7.0970125,1.7256209
1740493995957,3.3117795,-7.4687123,1.5442601
1740493995966,3.3728316,-7.9547353,1.513734
1740493995966,3.6535518,-8.293514,1.2976574
1740493995973,3.9624038,-8.512584,1.0432734
1740493995983,4.2796354,-8.751406,0.83378077
1740493995984,4.6339774,-9.0081835,0.78290397
1740493995986,4.9404354,-9.252991,0.76075757
1740493995993,5.1439424,-9.388264,0.86849666
1740493995997,5.257667,-9.498995,0.96306765
1740493996003,5.421071,-9.606734,1.0001777
1740493996006,5.7203465,-9.763555,1.0528502
1740493996019,6.066907,-9.9951935,1.1192893
1740493996020,6.4481835,-10.203489,1.2090719
1740493996021,6.859388,-10.29806,1.4808137
1740493996038,7.353192,-10.325593,1.9315223
1740493996039,7.9445596,-10.324396,2.6581624
1740493996039,8.635885,-10.259753,3.4703953
1740493996040,9.439739,-10.161591,4.3718123
1740493996057,9.439739,-10.161591,4.3718123
1740493996058,10.336368,-10.147824,4.9907136
1740493996058,11.16955,-10.311827,5.4737434
1740493996060,11.751341,-10.578181,5.9783216
1740493996066,12.03625,-10.780492,6.63134
1740493996071,12.154763,-10.810419,7.662044
1740493996076,12.251729,-10.69849,8.84059
1740493996081,12.401965,-10.6158905,10.062231
1740493996086,12.760496,-10.675147,11.180324
1740493996091,13.354259,-10.764331,12.10269
1740493996096,14.097059,-10.7912655,12.875419
1740493996101,14.7824,-10.705673,13.43626
1740493996105,15.499463,-10.482413,13.767857
1740493996112,16.305113,-10.081984,13.958196
1740493996115,17.253815,-9.503185,14.059351
1740493996121,18.285116,-8.694544,14.027029
1740493996126,19.252375,-7.8128786,13.780426
1740493996131,19.612701,-6.911462,13.174095
1740493996136,19.612701,-5.990891,12.32116
1740493996141,19.612701,-5.122993,11.2689085
1740493996147,19.612701,-4.258686,10.073604
1740493996150,19.612701,-3.46022,8.921992
1740493996157,19.612701,-2.8018146,7.928399
1740493996165,19.612701,-2.2780828,7.1275387
1740493996166,19.612701,-1.8525136,6.494272
1740493996172,19.612701,-1.5263035,6.033388
1740493996174,19.612701,-1.3042414,5.7664347
1740493996182,19.612701,-1.1486182,5.6760535
1740493996184,19.550453,-1.033098,5.4563856
1740493996189,19.32839,-0.7272388,4.382586
1740493996195,19.00697,-0.320823,4.000711
1740493996199,18.972252,0.074818805,3.900753
1740493996204,19.15122,0.3429694,3.9869444
1740493996209,19.308638,0.521936,4.1802764
1740493996215,19.428947,0.5895722,4.4184995
1740493996219,19.554642,0.6584055,4.598663
1740493996225,19.612701,0.62728083,4.76506
1740493996228,19.351135,0.4758476,4.5926776
1740493996234,18.56883,0.24540567,4.207211
1740493996241,17.525557,0.1604115,3.6966474
1740493996243,16.965912,-0.38307226,2.8401217
1740493996248,15.569493,0.08080431,1.8896236
1740493996255,14.000094,0.842759,1.340753
1740493996259,12.797606,1.0618285,0.16998832
1740493996265,11.787253,0.9103952,-0.7398083
1740493996269,10.932524,0.42317516,-1.4879963
1740493996274,10.003573,-0.037110128,-2.2284033
1740493996279,8.467693,-0.44711718,-3.330933
1740493996284,6.284181,-0.8283938,-5.1930237
1740493996288,4.56694,-2.087744,-9.780912
1740493996294,4.8279076,-2.3080103,-10.594342
1740493996298,4.7518916,-2.167351,-7.762002
1740493996304,3.4566288,-2.819771,-4.747103
1740493996309,2.2290018,-4.249708,-2.2930467
1740493996318,2.2098482,-5.209783,-0.076614454
1740493996319,3.0472202,-6.053739,1.1959038
1740493996329,3.572149,-6.9024835,1.5556326
1740493996332,4.043208,-7.1688385,2.1200657
1740493996334,4.4484267,-7.9984293,2.460641
1740493996350,4.812944,-8.079832,2.3373394
1740493996350,5.0481744,-8.290522,2.6354175
1740493996351,5.1277814,-8.425196,2.8257565
1740493996352,4.935647,-8.39467,3.177704
1740493996356,5.4366336,-7.7189064,2.8443117
1740493996362,5.963358,-6.3943143,3.2746694
1740493996366,6.1764417,-5.639542,3.8923733
1740493996372,6.1955953,-5.119402,4.4125137
1740493996376,6.06571,-4.495114,4.5657425
1740493996381,6.0064535,-3.9917328,4.493318
1740493996386,5.909488,-3.8750155,4.7016134
1740493996391,5.6245785,-3.5392287,4.7429137
1740493996397,5.7107697,-2.980781,4.96737
1740493996401,6.173449,-2.333748,5.507861
1740493996406,6.679224,-1.9919758,5.9160724
1740493996411,7.4806833,-2.0021513,5.173271
1740493996416,8.203134,-2.131438,4.585495
1740493996421,8.602366,-2.3894134,4.0306387
1740493996427,8.411429,-2.6844985,3.7852328
1740493996431,7.7799582,-2.8263552,3.9211037
1740493996436,6.8647747,-2.5582044,3.9983168
1740493996440,6.0148335,-2.5360582,3.7499185
1740493996445,5.6628857,-2.7150247,3.3704374
1740493996451,5.5503583,-2.665345,2.8473043
1740493996455,5.934029,-3.3530796,2.0320787
1740493996460,6.1866174,-4.2880154,1.2024878
1740493996467,5.6120086,-4.216788,1.027711
1740493996470,5.4474072,-4.06715,1.2946646
1740493996475,5.45459,-4.11264,1.2186487
1740493996481,4.5202527,-3.7235823,0.7098808
1740493996485,3.5811272,-3.4853592,0.9283517
1740493996490,3.4332852,-3.9498343,1.7561469
1740493996496,3.791817,-4.7668557,2.9867666
1740493996500,4.518457,-5.9519854,4.4005427
1740493996505,4.811747,-6.6546836,5.273828
1740493996511,5.134964,-7.0245876,5.5264163
1740493996515,5.601235,-6.9581485,5.5683146
1740493996520,7.1466923,-6.944382,5.4701524
1740493996525,8.995016,-7.0742674,5.5150437
1740493996531,10.7912655,-7.029975,5.3061495
1740493996536,12.346299,-6.664859,5.485116
1740493996541,13.452421,-5.4803276,6.0848637
1740493996545,14.416087,-3.4129345,6.6247563
1740493996551,15.442601,-1.3383588,6.4511766
1740493996554,15.418659,-0.682946,5.565322
1740493996565,14.342465,-0.7302315,4.2102036
1740493996566,13.450625,-0.7763199,3.330933
1740493996571,12.995129,-0.85173726,2.8975825
1740493996577,19.612701,-19.6133,5.993285
1740493996585,14.990695,-8.429385,3.366846
1740493996586,12.9484415,0.51834464,2.6898856
1740493996594,13.380595,-3.1196449,-0.018555064
1740493996594,13.311163,-7.9667063,-1.5328877
1740493996598,12.743138,-10.515932,-3.5488055
1740493996604,11.522096,-7.1784153,-4.3077674
1740493996610,10.923545,-7.0593038,-4.920683
1740493996614,9.455301,-5.9825115,-5.0930657
1740493996619,8.822633,-5.391144,-5.4102974
1740493996624,8.34499,-5.5760956,-5.73531
1740493996630,7.77936,-5.585074,-5.683236
1740493996633,6.8204823,-5.2367177,-4.8015714
1740493996640,6.455965,-5.473145,-5.3265004
1740493996644,6.293758,-5.6425347,-4.972757
1740493996648,6.190807,-5.876568,-4.3281183
1740493996654,6.194997,-6.2165446,-4.71957
1740493996659,6.317101,-6.4870896,-4.308366
1740493996666,6.4906807,-6.7959414,-4.1317935
1740493996669,6.5565214,-6.872556,-2.7072437
1740493996675,6.7534447,-6.613982,-0.5434838
1740493996680,6.7342906,-7.2723875,-4.6710877
1740493996686,7.2370734,-7.3729444,-2.2122424
1740493996688,7.7344685,-7.471705,-2.5917234
1740493996693,8.017583,-7.5650787,-2.3373394
1740493996700,8.146272,-7.7787614,-2.7688942
1740493996703,7.9541364,-7.9870567,-2.3630772
1740493996709,7.3591776,-8.261791,-2.2439656
1740493996713,6.6295447,-8.520366,-1.9488802
1740493996719,5.9130797,-8.728661,-1.501763
1740493996723,5.1756654,-8.905831,-1.0935516
1740493996728,4.5178585,-9.106346,-0.6925228
1740493996734,3.9043443,-9.34397,-0.29987377
1740493996738,3.393781,-9.491813,0.33039984
1740493996742,3.0113072,-9.610326,0.9127894
1740493996748,2.8736405,-9.803658,1.4850036
1740493996753,2.8898015,-9.989806,1.9853917
1740493996757,2.9897594,-10.010756,2.4384944
1740493996762,3.139397,-9.882068,2.8389246
1740493996768,3.1639376,-10.319608,6.703765
1740493996772,3.6469676,-11.028292,14.443022
1740493996777,5.7670336,-10.101735,13.489531
1740493996782,6.855198,-9.217676,9.394848
1740493996787,7.5243773,-8.072051,5.281609
1740493996792,8.731653,-7.8691425,2.6144683
1740493996797,10.221446,-8.511986,1.3132197
1740493996802,11.897985,-9.607333,0.88405895
1740493996807,13.252505,-10.2896805,1.2473791
1740493996812,13.642161,-10.3226,1.3054385
1740493996820,13.219584,-9.725247,2.1511903
1740493996820,12.198458,-8.891466,2.8604724
1740493996829,8.942942,-8.054693,2.4893713
1740493996836,6.2087636,-7.0605006,2.19249
1740493996836,5.133767,-7.2029557,2.1212628
1740493996841,3.4626143,-4.7937903,2.1535845
1740493996847,0.47225627,-6.067506,2.9125464
1740493996851,0.20231004,-7.7949224,1.0319009
1740493996856,0.6075287,-4.2945995,1.7998412
1740493996861,0.092775315,-5.1421466,3.0615854
1740493996867,-0.42078096,-2.9741971,1.9440918
1740493996871,0.08319851,-4.64116,3.888782
1740493996875,0.47405192,-3.4650085,1.8489223
1740493996881,1.2515689,-2.8562827,-0.44352585
1740493996886,1.7878702,-2.9400797,-1.3395559
1740493996890,1.6555905,-3.359065,-2.2140381
1740493996895,1.5340848,-3.645172,-3.891775
1740493996900,1.7256209,-4.3179426,-6.75943
1740493996905,3.192668,-6.9665284,-12.191275
1740493996910,4.3520603,-9.048286,-15.027207
1740493996917,4.0581717,-8.401254,-12.117653
1740493996921,3.394978,-7.289746,-7.941567
1740493996927,2.955642,-6.2339025,-5.29777
1740493996930,3.0172927,-5.575497,-3.2543187
1740493996935,3.3752258,-5.4504004,-1.3210008
1740493996942,3.7128084,-5.2804117,-0.06284779
1740493996947,4.189853,-5.285799,1.6017209
1740493996951,4.2676644,-4.980538,2.31639
1740493996955,3.9833531,-4.584896,2.0266917
1740493996962,3.3596635,-4.1677065,2.520496
1740493996970,3.3411086,-4.5842977,5.1409497
1740493996971,3.7870286,-4.9559975,5.1146135
1740493996976,4.505289,-5.3079453,4.919486
1740493996984,5.8125234,-5.424064,2.9418752
1740493996985,7.5812397,-5.734113,0.85173726
1740493996992,9.655815,-6.411672,0.02873042
1740493996994,11.790246,-6.977302,-0.19991584
1740493997002,13.297397,-7.2149267,0.2837129
1740493997004,13.755287,-7.211934,2.9466639
1740493997012,13.98513,-6.4086795,0.7823054
1740493997015,13.531429,-5.655703,-0.019752163
1740493997020,12.542624,-5.0541596,0.5069722
1740493997027,11.563994,-4.146757,0.219668
1740493997030,12.483966,-6.6056023,5.932832
1740493997036,12.045229,-6.7965403,3.9677908
1740493997041,10.89661,-6.120178,1.822586
1740493997045,9.509769,-5.773019,1.1258733
1740493997053,8.347384,-5.966949,0.682946
1740493997054,7.3071036,-6.302736,0.82001406
1740493997060,6.06152,-6.377555,1.3365631
1740493997066,4.7788267,-6.609792,1.3611037
1740493997068,3.791817,-7.065289,0.5919664
1740493997076,3.3638535,-7.8607626,-0.6865373
1740493997079,3.4326868,-9.116522,-1.8267759
1740493997085,3.6565444,-9.749788,-1.7723078
1740493997090,3.9426517,-9.957485,-0.23104046
1740493997096,3.41892,-8.337808,-0.4914099
1740493997099,2.6635494,-7.4345946,-0.09995792
1740493997105,1.9003977,-6.741473,-0.75716627
1740493997109,1.5143325,-6.14412,-1.5089456
1740493997115,1.5711949,-5.839458,-2.1158757
1740493997119,1.6956934,-5.7544637,-2.03148
1740493997126,2.392406,-6.3829417,-1.8782512
1740493997128,3.1800983,-7.101202,-1.5705963
1740493997137,4.020463,-8.240842,-1.2300211
1740493997138,4.703409,-9.352949,-1.1456255
1740493997145,6.0567317,-10.178948,-1.9500773
1740493997148,8.078036,-11.058818,-2.9161377
1740493997154,9.679159,-11.843517,-3.2160115
1740493997160,10.901998,-12.054207,-3.2740707
1740493997164,11.66874,-11.642405,-3.2399535
1740493997169,11.811195,-10.918159,-2.9406781
1740493997174,11.468226,-10.418967,-2.670732
1740493997179,10.928932,-9.706094,-2.5995045
1740493997186,10.21546,-9.064447,-2.3535004
1740493997187,9.58818,-8.801684,-2.369661
1740493997194,9.255385,-9.046491,-2.6701334
1740493997198,9.064447,-9.399037,-2.8939912
1740493997204,8.811859,-8.920197,-2.8538885
1740493997209,8.719084,-7.8769236,-2.6491842
1740493997213,8.713099,-6.865972,-2.4019828
1740493997219,8.536526,-6.103419,-2.2571337
1740493997224,8.250419,-5.46297,-2.2218192
1740493997228,8.507197,-4.972757,-2.309806
1740493997235,8.372523,-4.5220485,-2.172738
1740493997236,7.513005,-4.250905,-1.9985598
1740493997245,6.3949127,-4.0922894,-2.202067
1740493997246,5.427057,-4.2359414,-2.1110873
1740493997253,4.695628,-4.593276,-0.6314707
1740493997257,4.256292,-5.266645,-1.8644845
1740493997263,3.804985,-5.78499,-1.3269863
1740493997270,3.2908301,-6.0399723,-0.95708215
1740493997271,2.9747956,-6.3260794,-0.49320555
1740493997279,2.5941176,-6.2793927,-0.12270284
1740493997283,2.1691468,-5.9998693,0.25079262
1740493997287,2.4277205,-6.8522053,0.93134445
1740493997294,2.0805612,-6.779182,1.0785879
1740493997297,1.9782091,-7.1125746,1.5819688
1740493997304,2.2517467,-8.059482,1.903989
1740493997306,2.6485856,-10.500969,16.139313
1740493997313,2.2224178,-7.77936,-5.0374002
1740493997317,2.724003,-9.188348,0.046686932
1740493997327,3.4326868,-10.824186,1.7657237
1740493997330,3.8839936,-11.920731,1.7794905
1740493997331,4.1341877,-12.611458,1.7495629
1740493997340,4.489128,-13.527838,1.541866
1740493997341,4.683657,-13.898341,1.1935096
1740493997344,4.9135003,-13.8959465,0.7290344
1740493997353,5.096657,-13.731345,0.18854338
1740493997355,5.3965306,-13.673884,-0.6147113
1740493997361,5.614403,-13.272856,-1.6484078
1740493997367,5.563526,-11.455657,-2.4708161
1740493997370,4.5819035,-10.161591,-6.6486983
1740493997390,5.0224366,-9.165004,-3.9510314
1740493997394,4.8189297,-8.489241,-4.509479
1740493997394,4.6519337,-8.062474,-4.6902413
1740493997395,4.871003,-7.691373,-4.38917
1740493997395,5.7442884,-7.3807254,-3.952827
1740493997407,6.487688,-6.997653,-3.7433343
1740493997407,7.402273,-6.675633,-3.550601
1740493997418,8.498219,-6.371569,-3.2848446
1740493997418,9.1751795,-6.125565,-2.9891608
1740493997419,10.481815,-6.1967926,1.6334441
1740493997457,11.249755,-6.5032506,-4.624999
1740493997457,9.936536,-5.3384714,-6.623559
1740493997457,9.873688,-5.679645,-3.052607
1740493997458,11.049241,-6.4505777,-1.1737574
1740493997458,11.297639,-6.8528037,-0.52492875
1740493997459,11.547833,-7.171831,-1.1192893
1740493997459,11.269507,-7.234679,-1.9470845
1740493997459,10.337564,-6.9826894,-2.4211364
1740493997465,10.0748005,-7.7691846,-1.8082209
1740493997469,10.168773,-7.9547353,-0.17058687
1740493997478,9.789292,-7.827842,-2.106299
1740493997479,10.150218,-8.015189,-0.5177461
1740493997483,10.266336,-7.855974,-1.7597382
1740493997488,10.277111,-7.5590935,-1.6843209
1740493997493,10.095152,-7.1245456,-2.5558102
1740493997498,9.721656,-6.6852098,-2.5019407
1740493997505,9.235035,-6.2446766,-2.5899277
1740493997508,8.769362,-5.819107,-2.3008277
1740493997514,8.317456,-5.357625,-2.202067
1740493997523,7.873931,-4.8937483,-2.0338743
1740493997523,7.5082164,-4.5022964,-1.8794483
1740493997529,7.4447703,-4.405331,-1.7866731
1740493997533,7.4932528,-4.417302,-1.7040731
1740493997539,7.6051817,-4.4328647,-1.6334441
1740493997543,7.6644382,-4.495114,-1.6651673
1740493997549,7.7973166,-4.56694,-1.6531962
1740493997558,7.863157,-4.5645456,-1.5975311
1740493997559,7.900267,-4.6680946,-1.6154876
1740493997563,7.896077,-4.8123455,-1.5939398
1740493997568,7.901464,-4.987122,-1.5807717
1740493997574,7.7931266,-5.093664,-1.4700398
1740493997580,7.5285673,-5.073313,-1.3617022
1740493997583,7.3310456,-4.860828,-1.3090298
1740493997591,7.350199,-4.520851,-1.2144588
1740493997591,7.626131,-3.9869444,-1.1186907
1740493997599,7.9194207,-3.5128925,-0.98102415
1740493997608,7.9236107,-3.1824925,-0.92775315
1740493997608,7.6704235,-3.1016884,-0.9888053
1740493997613,7.342418,-3.0011318,-0.88944596
1740493997618,7.1371155,-2.7832594,-0.81343
1740493997624,7.132327,-2.5091233,-0.7428011
1740493997626,7.345411,-2.2062569,-0.676362
1740493997634,7.5525093,-1.9680338,-0.66858083
1740493997641,7.6889787,-1.7316064,-0.6356605
1740493997643,7.6404963,-1.5239093,-0.4973954
1740493997648,7.5926123,-1.4891934,-0.49799395
1740493997652,7.4776907,-1.5478514,-0.46327803
1740493997657,7.3083005,-1.7142484,-0.39683893
1740493997661,7.2687964,-1.9476831,-0.3513491
1740493997668,7.2388687,-2.098518,-0.29807812
1740493997671,6.983288,-2.034473,-0.40162733
1740493997677,6.63553,-1.7681179,-0.6793547
1740493997683,6.447585,-1.5556326,-0.86849666
1740493997691,6.447585,-1.5556326,-0.86849666
1740493997693,6.330868,-1.4155718,-0.85413146
1740493997698,6.225523,-1.3790601,-0.736217
1740493997702,6.118981,-1.477821,-0.5907693
1740493997705,6.051345,-1.6208745,-0.48602295
1740493997712,5.9962783,-1.6968905,-0.41718966
1740493997718,6.005256,-1.7106571,-0.43514615
1740493997726,6.0597243,-1.7232267,-0.4417302
1740493997726,6.157887,-1.75076,-0.4417302
1740493997732,6.30513,-1.8058267,-0.47105917
1740493997742,6.531981,-1.8800468,-0.45370123
1740493997750,6.766014,-1.9375077,-0.4842273
1740493997751,6.983288,-1.95307,-0.52253455
1740493997751,7.132327,-1.9847932,-0.59256494
1740493997759,7.3579803,-2.034473,-0.7697359
1740493997759,7.3579803,-2.034473,-0.7697359
1740493997766,7.4681134,-2.0518308,-0.9624691
1740493997771,7.536947,-2.0266917,-1.1647792
1740493997776,7.603386,-2.0368671,-1.3808558
1740493997781,7.606379,-2.022502,-1.5586253
1740493997786,7.6811976,-2.0296845,-1.6280571
1740493997792,7.7889366,-2.0380642,-1.6424223
1740493997796,7.9194207,-2.0787656,-1.6256629
1740493997801,8.016386,-2.1942859,-1.5215151
1740493997810,8.161235,-2.349909,-1.3922282
1740493997810,8.295909,-2.4756045,-1.3461399
1740493997815,8.549694,-2.5486276,-1.335366
1740493997820,8.807071,-2.5767596,-1.1306617
1740493997825,9.098565,-2.5899277,-1.0031705
1740493997844,9.473856,-2.7257986,-0.9516952
1740493997844,10.0269165,-3.0478187,-1.0307038
1740493997848,10.830172,-3.5775359,-1.292869
1740493997848,11.894394,-4.2515035,-1.6136919
1740493997849,13.204022,-5.0212393,-2.0296845
1740493997860,14.599243,-5.805341,-2.4361002
1740493997861,15.928624,-6.527791,-2.6563668
1740493997864,17.041328,-7.117363,-2.6300306
1740493997870,17.442358,-7.4549456,-2.743755
1740493997874,16.961123,-7.5866265,-2.754529
1740493997880,15.43901,-7.3645644,-2.9993362
1740493997885,13.111247,-6.7318964,-3.2261868
1740493997889,10.573992,-6.097433,-3.8762126
1740493997895,8.238448,-5.521628,-4.875193
1740493997898,6.3488245,-4.9308586,-5.7418942
1740493997904,5.2259436,-4.268263,-5.6245785
1740493997909,4.830302,-3.7780502,-4.06715
1740493997914,4.777031,-3.5984852,-1.2096704
1740493997919,4.787805,-3.6134489,1.6095021
1740493997923,4.9344497,-3.7014358,3.323152
1740493997929,5.450999,-4.2658687,3.2824504
1740493997935,6.199785,-5.2361193,2.0141222
1740493997939,6.8881183,-4.8123455,0.78050977
1740493997943,7.824251,-2.765303,1.3257892
1740493997949,8.380304,-1.4347254,0.3513491
1740493997954,9.667787,-3.570952,-1.7782934
1740493997960,10.352529,-5.239112,-2.4115596
1740493997964,10.653599,-5.9561753,-0.79846627
1740493997969,10.329783,-5.943007,0.37948096
1740493997973,10.288484,-6.1848216,0.39025488
1740493997979,10.1304655,-5.9980736,0.15382746
1740493997984,9.722853,-5.3181205,-0.15562311
1740493997988,9.2547865,-4.6884456,-0.35075054
1740493997993,8.892065,-4.3185415,-0.2124854
1740493997999,8.342596,-3.7475243,0.19991584
1740493998003,7.784148,-3.3081882,0.7098808
1740493998008,7.543531,-3.4009635,0.4249708
1740493998013,7.4046674,-3.4877534,0.41599256
1740493998018,7.211934,-3.7002387,0.5021838
1740493998023,7.088034,-3.9737763,0.40761283
1740493998029,7.1407065,-4.9733553,0.23582886
1740493998033,7.0263834,-5.674258,0.016759412
1740493998039,6.945579,-6.141726,-0.29448682
1740493998043,6.853402,-6.8426285,-0.52133745
1740493998048,6.7809777,-7.5680714,-0.81761986
1740493998054,6.7283053,-8.648455,-0.90500826
1740493998057,6.7989345,-10.065823,-0.8643068
1740493998064,6.7761893,-11.262324,-0.40880993
1740493998068,6.8947024,-12.582129,-0.7302315
1740493998074,6.925827,-14.079701,-0.80564886
1740493998080,6.655881,-13.893553,-0.64942724
1740493998081,6.30932,-12.50731,-0.34955344
1740493998088,5.9364233,-10.975619,0.08080431
1740493998093,5.786187,-10.097546,0.56084174
1740493998098,5.6964045,-9.5809965,0.760159
1740493998103,5.7023897,-9.19134,0.6991069
1740493998108,5.801749,-8.595184,0.5374983
1740493998115,6.0663085,-8.206126,0.43993455
1740493998116,6.1979895,-7.9996266,0.47285482
1740493998124,6.203377,-7.8691425,0.57640404
1740493998128,6.085462,-7.7440453,0.5979519
1740493998134,5.9148755,-7.65546,0.7009025
1740493998136,5.7095723,-7.5668745,0.8511387
1740493998144,5.5503583,-7.425018,1.1067197
1740493998146,5.429451,-7.2699933,1.4095862
1740493998154,5.4019175,-7.1365166,1.6101006
1740493998156,5.406706,-7.1101804,1.673547
1740493998163,5.3875523,-7.173627,1.7729063
1740493998167,5.3642087,-7.088034,1.7591397
1740493998174,5.406706,-6.904279,1.7711107
1740493998176,5.4964886,-7.0126166,1.5161282
1740493998182,5.5312047,-7.2029557,0.35553896
1740493998188,5.583278,-7.463924,-0.7164649
1740493998194,5.7640405,-7.813477,-0.036511578
1740493998197,5.8628016,-7.9870567,0.91338795
1740493998203,5.866991,-7.9182234,1.234211
1740493998209,5.8987145,-7.5225816,0.98341835
1740493998213,5.9627595,-7.0832458,0.79726917
1740493998217,6.0411696,-6.9348054,0.17178397
1740493998223,6.002862,-6.7199254,-0.44113165
1740493998227,6.0118403,-6.8569937,0.29807812
1740493998233,6.142923,-7.012018,1.264737
1740493998237,6.361394,-7.089231,1.7292122
1740493998243,6.5990186,-7.1550717,1.5933412
1740493998245,6.806117,-7.228095,1.0426749
1740493998260,7.023989,-7.351396,0.64583594
1740493998261,7.192182,-7.414244,0.7727286
1740493998262,7.2969284,-7.4645224,1.2605472
1740493998265,7.3549876,-7.4687123,1.6962919
1740493998271,7.356185,-7.4256167,1.7687165
1740493998275,7.3430166,-7.3029137,1.596334
1740493998285,7.2670007,-7.1448965,1.3617022
1740493998285,7.1706343,-6.927623,1.2605472
1740493998291,7.0646906,-6.6762314,1.2324153
1740493998294,6.945579,-6.4487824,1.3329718
1740493998301,6.807314,-6.2482677,1.4718355
1740493998305,6.6726403,-6.0585275,1.412579
1740493998311,6.554127,-5.871181,1.323395
1740493998315,6.4625487,-5.79337,1.1875241
1740493998319,6.4140663,-5.749077,0.99060094
1740493998325,6.3589997,-5.81791,0.6847417
1740493998335,6.3141084,-5.94181,0.5033809
1740493998335,6.30513,-5.9148755,1.7501614
1740493998338,6.3368535,-6.156091,0.45848963
1740493998345,6.278794,-6.3524156,-0.060453594
1740493998350,6.173449,-6.5601125,-0.415394
1740493998353,6.079477,-6.652888,-0.23702596
1740493998365,6.005256,-6.743269,0.2908955
1740493998365,5.9477954,-6.862979,0.6266823
1740493998368,5.886145,-6.9707184,0.7332243
1740493998374,5.9023056,-7.080253,0.59974754
1740493998378,5.9172697,-7.1849995,0.5279215
1740493998383,5.8945246,-7.273585,0.59615624
1740493998390,5.929839,-7.32506,0.61171854
1740493998393,5.973533,-7.381324,0.6847417
1740493998399,5.9531827,-7.4363904,0.76315176
1740493998404,5.931635,-7.441179,0.89782566
1740493998409,5.93343,-7.44896,1.0145429
1740493998413,5.945401,-7.4082584,1.0342951
1740493998419,5.9878983,-7.3603745,1.2946646
1740493998424,5.9867015,-7.289147,1.6172832
1740493998428,6.067506,-7.193379,1.9333179
1740493998434,6.1249666,-7.097611,2.203264
1740493998439,6.1824274,-7.0132155,2.2918496
1740493998443,6.2464724,-6.95755,2.4732103
1740493998449,6.293159,-6.9132576,2.6084828
1740493998454,6.3512187,-6.8605847,2.6013002
1740493998457,6.43322,-6.8210807,2.4911668
1740493998463,6.5337763,-6.8839283,2.3415294
1740493998469,6.6684504,-6.9144545,2.0895395
1740493998473,6.799533,-6.997653,1.8674773
1740493998477,6.8863225,-7.101202,1.608305
1740493998483,6.932411,-7.2221093,1.5059528
1740493998487,6.92044,-7.369353,1.453879
1740493998493,6.903681,-7.5004354,1.0600328
1740493998498,6.83365,-7.611766,1.292869
1740493998503,6.745663,-7.6764092,1.4784195
1740493998508,6.667253,-7.803302,1.3760674
1740493998513,6.571485,-7.955932,1.258153
1740493998518,6.4685345,-8.066664,1.2677298
1740493998523,6.389526,-8.21271,1.2773066
1740493998527,6.335656,-8.380304,1.3503298
1740493998533,6.295553,-8.579621,1.3377602
1740493998538,6.217143,-8.830415,1.1827357
1740493998544,6.2165446,-9.078813,1.1552023
1740493998547,6.209362,-9.371504,1.2072762
1740493998553,6.227319,-9.645041,1.3198037
1740493998557,6.2793927,-9.933543,1.4149733
1740493998562,6.3883286,-10.245388,1.5807717
1740493998568,6.5469446,-10.608109,1.774702
1740493998572,6.773795,-11.017518,1.7794905
1740493998577,7.103596,-11.502942,1.6154876
1740493998583,7.4681134,-12.215217,0.054468088
1740493998588,8.003218,-12.792818,1.2785037
1740493998593,8.68796,-13.424888,1.5005659
1740493998595,9.436148,-14.074913,0.6183026
1740493998603,10.263344,-14.622587,0.39145198
1740493998608,11.092337,-15.118187,-0.4938041
1740493998611,11.845313,-15.433622,-1.4820108
1740493998617,12.510901,-15.492879,-2.5803509
1740493998622,12.907142,-15.312716,-3.6912606
1740493998627,12.926893,-14.325706,-4.4077253
1740493998632,12.42052,-12.831125,-4.7680526
1740493998638,11.6585655,-11.313202,-4.6537294
1740493998641,10.819398,-10.034698,-4.4023385
1740493998646,10.055647,-8.926183,-4.0186677
1740493998653,9.469068,-8.324639,-3.5296519
1740493998656,9.054871,-7.9529395,-3.0148985
1740493998662,8.79091,-7.6788034,-2.569577
1740493998666,8.560468,-7.450157,-2.0638018
1740493998673,8.376713,-7.245453,-1.6160861
1740493998676,8.230667,-7.0970125,-1.0953473
1740493998683,8.034941,-7.0646906,-0.60333884
1740493998686,7.7865424,-7.0874357,-0.079008654
1740493998691,7.480085,-7.0622964,0.4165911
1740493998696,7.1646485,-6.9916677,1.0187328
1740493998701,6.8360443,-6.9611416,1.8986019
1740493998708,6.551733,-6.9288197,2.107496
1740493998711,6.343437,-6.8085113,1.8171991
1740493998716,6.1369376,-6.727707,1.4532804
1740493998722,5.929839,-6.7402763,1.5358804
1740493998724,5.7227407,-6.806117,1.8956091
1740493998730,5.514445,-6.917447,2.2840683
1740493998737,5.355231,-7.00723,2.4013844
1740493998740,5.307347,-7.067683,2.1930888
1740493998746,5.3516393,-7.156269,1.8848352
1740493998750,5.543774,-7.3388267,1.5777789
1740493998755,5.969343,-7.6321163,1.1055226
1740493998761,6.43322,-7.9691005,0.5967548
1740493998764,6.7510505,-8.191761,0.45908818
1740493998771,6.8869214,-8.136695,0.53091425
1740493998774,7.0581064,-7.8709383,0.4381389
1740493998779,7.394492,-7.57286,-0.4866215
1740493998784,7.920019,-7.3729444,-2.0524294
1740493998788,8.406042,-6.9892735,-2.4211364
1740493998793,9.051279,-6.593033,-1.1031284
1740493998798,9.537901,-6.395511,-0.8996213
1740493998804,9.64983,-6.2781954,-1.584363
1740493998811,9.405622,-5.9729347,-1.8686744
1740493998813,9.051279,-5.6359506,-1.5999253
1740493998818,8.860941,-5.386954,-0.81642276
1740493998825,9.193136,-5.3522377,0.6135142
1740493998827,9.5798,-5.4504004,0.40821138
1740493998836,9.74859,-5.6670756,0.1400608
1740493998837,9.728839,-5.9142766,0.24959552
1740493998845,9.508572,-6.238691,0.17238252
1740493998850,8.989629,-6.531382,-0.23642741
1740493998854,8.207323,-6.7324953,-0.60693014
1740493998864,7.391499,-6.9545574,-0.56982
1740493998864,6.6187706,-7.1903863,-0.3196259
1740493998867,5.995081,-7.33344,-0.12150574
1740493998874,5.5737014,-7.4872675,-0.33399114
1740493998877,5.4408236,-7.589619,0.22984336
1740493998884,5.4911017,-7.69257,0.53809685
1740493998888,5.504868,-7.766192,0.3549404
1740493998894,5.4617724,-7.771579,0.37349546
1740493998899,5.3115363,-7.776367,0.41838676
1740493998904,5.0757074,-7.7081323,0.6027403
1740493998908,4.84347,-7.595605,0.7320272
1740493998912,4.617218,-7.3765354,0.89902276
1740493998918,4.4502225,-7.069479,1.0402806
1740493998926,4.344279,-6.7719994,1.0809821
1740493998927,4.187459,-6.5565214,0.88645315
1740493998932,3.9923313,-6.3242836,0.97025025
1740493998938,3.7223852,-6.002862,1.1755531
1740493998946,3.3931823,-5.6156,1.2850877
1740493998947,3.0478187,-5.21936,1.1605892
1740493998954,2.7724855,-4.8285065,1.1803415
1740493998957,2.4690206,-4.401141,0.95109665
1740493998962,2.2349873,-3.9653966,0.7505822
1740493998968,2.2140381,-3.5889084,0.31064767
1740493998973,2.369661,-3.2860417,0.08738836
1740493998979,2.610877,-3.0777464,-0.08080431
1740493998981,2.8215668,-2.9107506,-0.12030864
1740493998988,3.0125043,-2.8335378,-0.16639702
1740493998993,3.12982,-2.8042088,-0.22505496
1740493998997,3.2357635,-2.8616695,-0.30226797
1740493999003,3.4123359,-3.007716,-0.130484
1740493999007,3.5500026,-3.13401,-0.25198972
1740493999012,3.6361938,-3.2022448,-0.21547815
1740493999016,3.7325604,-3.2549171,-0.25019407
1740493999023,3.8845923,-3.357868,-0.25079262
1740493999027,4.103063,-3.453636,-0.22445641
1740493999031,4.3580456,-3.5248635,-0.073621705
1740493999038,4.64116,-3.53863,0.10414778
1740493999043,4.9254713,-3.5087025,0.2657564
1740493999046,5.1996074,-3.4572272,0.4249708
1740493999053,5.469554,-3.4159272,0.694917
1740493999056,5.692813,-3.3566709,1.0546459
1740493999062,5.851429,-3.3692403,1.4784195
1740493999065,5.9609637,-3.5152867,1.9081788
1740493999072,5.9501896,-3.6924577,2.303222
1740493999076,5.868787,-3.9486372,2.645593
1740493999081,5.7885814,-4.2610803,3.0376434
1740493999086,5.732916,-4.6591167,3.3554738
1740493999092,5.7179523,-5.005079,3.490746
1740493999096,5.8382607,-5.1942205,3.3919852
1740493999102,6.093243,-5.131373,2.9891608
1740493999104,6.6026096,-4.8099513,2.2385786
1740493999114,7.2352777,-4.1706996,1.0295067
1740493999115,7.7709804,-3.2728736,-1.055843
1740493999125,8.573038,-2.5845408,-2.7964275
1740493999139,10.19451,-3.115455,-3.2255883
1740493999144,11.063606,-3.9468415,-3.292626
1740493999148,12.034455,-5.8604074,-1.6944963
1740493999151,13.181876,-8.169615,-0.22445641
1740493999154,14.594455,-10.854712,-1.4227544
1740493999154,16.396091,-13.432669,-3.655946
1740493999155,18.047493,-15.950171,-5.3743844
1740493999162,18.92377,-17.921797,-4.8722005
1740493999164,18.507778,-19.05545,-2.654571
1740493999171,16.913239,-19.09735,-0.59017074
1740493999175,14.4053135,-17.4663,0.5153519
1740493999180,11.760918,-14.531009,0.78649527
1740493999185,9.223662,-11.322779,0.7230489
1740493999191,7.249643,-8.62152,0.45070848
1740493999196,5.8586116,-6.6163764,0.107140526
1740493999200,4.7506948,-4.988918,0.020350715
1740493999204,3.858256,-3.645172,0.26994625
1740493999210,3.25791,-2.782661,0.50996494
1740493999213,2.9418752,-2.4121583,0.94690675
1740493999221,2.8927941,-2.3588872,1.3054385
1740493999225,2.9376855,-2.5516205,1.3670892
1740493999231,3.074155,-3.0125043,1.4161704
1740493999235,3.3919852,-3.7032316,1.5334862
1740493999240,4.162918,-4.6764746,1.834557
1740493999246,4.959589,-5.590461,2.130241
1740493999248,5.5497594,-6.39611,2.3343468
1740493999254,6.0956373,-7.076063,1.9746178
1740493999260,6.6666546,-7.599795,1.881244
1740493999265,7.141305,-7.9673047,1.3802572
1740493999267,7.4112515,-8.226477,1.0336965
1740493999273,7.6111674,-8.403648,0.6027403
1740493999278,7.703344,-8.534132,0.3286042
1740493999283,7.8344264,-8.65025,0.15861586
1740493999288,7.8649526,-8.767567,0.10055647
1740493999293,7.8972745,-8.702923,0.362123
1740493999297,7.8835077,-8.422802,0.8182184
1740493999303,7.767389,-7.939771,1.1133038
1740493999308,7.5561004,-7.419631,1.2030864
1740493999313,7.3071036,-6.8947024,1.0702082
1740493999317,6.997653,-6.356007,0.8912416
1740493999322,6.7163343,-5.919065,0.7254431
1740493999327,6.7163343,-5.919065,0.7254431
1740493999337,6.5337763,-5.5737014,0.6733692
1740493999337,6.4224463,-5.29358,0.6242881
1740493999342,6.351817,-5.0798974,0.56982
1740493999346,6.3344593,-4.9320555,0.44891283
1740493999351,6.341642,-4.795586,0.36990416
1740493999358,6.4110737,-4.635773,0.49559975
1740493999362,6.4110737,-4.635773,0.49559975
1740493999367,6.494272,-4.585495,0.64583594
1740493999372,6.530185,-4.6178164,0.6464345
1740493999377,6.597223,-4.63697,0.2908955
1740493999380,6.681618,-4.679467,0.81402856
1740493999386,6.8228765,-4.7758336,1.0971429
1740493999390,7.018004,-4.932654,1.0905589
1740493999396,7.1963716,-5.0787005,1.06123
1740493999401,7.347805,-5.2199583,0.89423436
1740493999409,7.4082584,-5.3713913,0.5835867
1740493999410,7.467515,-5.5431757,0.26036942
1740493999424,7.4884644,-5.693412,-0.027533319
1740493999424,7.479486,-5.885546,-0.011971008
1740493999435,7.455544,-6.0782795,0.09816227
1740493999435,7.450157,-6.2327056,0.15203181
1740493999436,7.3747396,-6.3248825,0.092775315
1740493999473,7.321469,-6.367978,0.10115502
1740493999473,7.2221093,-6.4386067,0.079008654
1740493999474,7.0461354,-6.521207,0.07182605
1740493999474,6.8623805,-6.585252,0.05865794
1740493999474,6.6947865,-6.621165,0.10474633
1740493999475,6.535572,-6.670246,0.10474633
1740493999475,6.3901243,-6.715736,0.11851298
1740493999475,6.2345014,-6.758233,0.15382746
1740493999479,6.1399302,-6.789956,0.2124854
1740493999492,6.071097,-6.818088,0.31244332
1740493999492,6.0483522,-6.845621,0.25079262
1740493999494,5.990891,-6.8683662,0.092176765
1740493999500,5.9346275,-6.7761893,0.16819267
1740493999504,5.7825956,-6.5589156,1.1384429
1740493999509,5.744887,-6.7749925,0.010175358
1740493999515,5.781997,-6.9348054,-0.2681506
1740493999519,5.7903767,-7.041347,-0.09696517
1740493999524,5.816713,-7.0904284,0.05626374
1740493999529,5.911284,-7.1065893,0.19692309
1740493999534,6.0022635,-7.008427,0.41299978
1740493999539,6.1387334,-6.8306575,0.7505822
1740493999544,6.2458735,-6.747459,1.0342951
1740493999550,6.331466,-6.7067575,1.3186066
1740493999554,6.379949,-6.701969,1.4676456
1740493999559,6.4386067,-6.7109475,1.5873557
1740493999570,6.5230026,-6.7163343,1.6903064
1740493999571,6.6504936,-6.6905966,1.7423803
1740493999574,6.7103486,-6.671443,1.7860745
1740493999579,6.71394,-6.6654577,1.6897079
1740493999585,6.741473,-6.694188,1.4119805
1740493999589,6.7318964,-6.7133417,1.1127052
1740493999594,6.6708446,-6.663662,0.90859956
1740493999601,6.5882444,-6.6067996,0.7428011
1740493999604,6.479907,-6.581062,0.6619968
1740493999608,6.3991027,-6.569091,0.7188591
1740493999614,6.357204,-6.569091,0.8888474
1740493999618,6.408081,-6.564901,1.0462662
1740493999624,6.530185,-6.4960675,1.2425907
1740493999628,6.657078,-6.495469,1.3856442
1740493999636,6.795343,-6.5349736,1.6867151
1740493999638,6.949769,-6.6079965,2.0099323
1740493999643,7.121553,-6.637924,2.195483
1740493999651,7.304111,-6.6840124,2.2870612
1740493999653,7.482479,-6.8462195,2.396596
1740493999658,7.587824,-6.9862804,2.1404164
1740493999663,7.6255326,-7.1395097,1.7280151
1740493999669,7.5561004,-7.255628,1.4036007
1740493999673,7.5052238,-7.4603324,1.1480197
1740493999678,7.492056,-7.7488337,0.94930094
1740493999685,7.517793,-8.099585,0.6865373
1740493999687,7.5112095,-8.450335,0.39504328
1740493999693,7.530363,-8.752005,0.53809685
1740493999704,7.536947,-9.068638,0.7200562
1740493999704,7.536947,-9.348759,0.76075757
1740493999707,7.581838,-9.659407,0.8367735
1740493999713,7.650073,-9.979631,1.050456
1740493999718,7.699753,-10.270527,1.3521254
1740493999722,7.743447,-10.546458,1.8501194
1740493999727,7.827244,-10.865486,2.2571337
1740493999737,7.888296,-11.255142,2.3828292
1740493999738,7.9852614,-11.68969,2.4863784
1740493999742,8.038532,-12.191874,2.5067291
1740493999747,8.098986,-12.720393,2.473809
1740493999751,8.179192,-13.312959,2.1829133
1740493999757,8.2354555,-13.889362,1.8195933
1740493999762,8.346786,-14.4292555,1.4083891
1740493999769,8.422203,-14.857818,0.75956047
1740493999772,8.536526,-15.078682,-0.02873042
1740493999776,8.622718,-14.811131,-0.90500826
1740493999786,8.740033,-13.954604,-1.8375498
1740493999786,8.89805,-12.716803,-2.8670566
1740493999791,9.066243,-11.382035,-3.6170402
1740493999796,9.202114,-10.205285,-3.7720647
1740493999803,9.281721,-9.270349,-3.6337996
1740493999806,9.315839,-8.579621,-3.2315738
1740493999811,9.298481,-8.04751,-2.7509377
1740493999821,9.256582,-7.6081743,-2.3307555
1740493999821,9.212888,-7.1502833,-1.8668787
1740493999826,9.227852,-6.581062,-1.4700398
1740493999831,9.117719,-6.278794,-1.1569979
1740493999837,8.924387,-6.133945,-0.86969376
1740493999858,8.707711,-5.99149,-0.6171055
1740493999859,8.470087,-5.901707,-0.39324763
1740493999859,8.267179,-5.896919,-0.15263036
1740493999860,8.11395,-5.9023056,0.2657564
1740493999860,7.9876556,-5.9142766,0.5267244
1740493999866,7.924209,-5.899313,0.7637503
1740493999871,7.8326306,-5.93762,1.0761937
1740493999875,7.681796,-6.022016,1.2036849
1740493999880,7.4705076,-6.118981,1.2360066
1740493999885,7.1730285,-6.2584434,0.84814596
1740493999891,7.1185603,-6.333262,0.5883751
1740493999895,6.8581905,-6.609792,1.2366052
1740493999903,6.6600704,-6.8785415,1.6921021
1740493999904,6.5726824,-7.107786,1.7866731
1740493999910,6.5828576,-7.2304893,1.4838065
1740493999921,6.603208,-7.387908,1.2312182
1740493999922,6.5032506,-7.5483193,1.2401965
1740493999925,6.4128695,-7.6452847,1.2898762
1740493999930,6.293758,-7.809886,1.3910311
1740493999937,6.213552,-8.015189,1.6537948
1740493999939,6.25964,-8.110358,1.8118122
1740493999946,6.3272767,-8.076839,1.5813702
1740493999954,6.381146,-7.961918,1.0127473
1740493999954,6.4002995,-7.687183,0.25977087
1740493999961,6.5816603,-7.32925,-1.0289081
1740493999965,7.3849154,-6.9318123,-3.6098576
1740493999971,8.008605,-6.423643,-4.735731
1740493999974,8.282143,-5.917868,-0.9355343
1740493999979,8.592192,-5.93343,-3.5757403
1740493999990,8.643068,-5.9501896,-4.546589
1740493999991,8.528745,-6.108207,-2.9299042
1740493999994,8.559271,-6.173449,-1.7070658
1740494000004,8.705916,-6.2392898,-0.98820674
1740494000004,9.029133,-6.333262,-0.7433996
1740494000009,9.459491,-6.5762734,-0.9947908
1740494000014,9.595961,-6.8324533,-1.5981296
1740494000019,9.150639,-7.143699,-2.2337902
1740494000023,8.228272,-7.6225395,-2.767697
1740494000029,6.950966,-7.9433627,-2.6485856
1740494000033,5.8268886,-8.282143,-1.9566613
1740494000038,5.1840453,-8.55987,-0.83976626
1740494000043,4.956596,-8.656237,0.25977087
1740494000049,5.051167,-8.602965,1.2976574
1740494000054,5.2810106,-8.47727,1.7232267
1740494000058,5.5485625,-8.233061,1.4209588
1740494000064,5.786187,-7.9487495,0.8050503
1740494000068,5.7442884,-7.8290396,0.25139117
1740494000073,5.614403,-7.730279,-0.077811554
1740494000078,5.5324016,-7.563283,-0.020949265
1740494000083,5.439028,-7.3723454,0.23044191
1740494000088,5.309142,-7.199963,0.6500258
1740494000094,5.149928,-7.00304,1.1330559
1740494000098,4.9763484,-6.779182,1.5544355
1740494000104,4.766257,-6.4368114,1.7130513
1740494000108,4.624999,-5.9687448,1.9267339
1740494000113,4.4759603,-5.4743423,2.0380642
1740494000118,4.3807907,-5.0781016,1.8776526
1740494000123,4.280234,-4.6962266,1.5173253
1740494000128,4.068946,-4.283227,0.9139865
1740494000137,3.9013517,-3.9318779,0.41718966
1740494000138,3.9576154,-3.7295678,-0.2136825
1740494000143,4.115034,-3.6601357,-0.4369418
1740494000148,4.2251673,-3.6433764,-0.58119243
1740494000153,4.3077674,-3.6936548,-0.6422446
1740494000157,4.3879733,-3.7948096,-0.61171854
1740494000163,4.5567646,-3.8720226,-0.29508537
1740494000168,4.7339354,-3.915717,-0.50996494
1740494000173,4.8069587,-3.8660371,-0.49081135
1740494000177,4.805163,-3.8307228,-0.62967503
1740494000182,4.753089,-3.7870286,-0.7164649
1740494000187,4.710592,-3.7271736,-0.7751228
1740494000192,4.69084,-3.606865,-0.664391
1740494000197,4.6800656,-3.477578,-0.44951138
1740494000203,4.6537294,-3.329736,-0.17597382
1740494000207,4.5926776,-3.1848867,0.26874915
1740494000212,4.4580035,-3.0125043,0.79367787
1740494000217,4.4274774,-3.0226796,1.6047137
1740494000222,4.18686,-2.9005754,1.8644845
1740494000227,3.8295257,-2.7257986,2.0655975
1740494000232,3.7193923,-2.80361,2.5582044
1740494000236,3.6661212,-2.9604304,3.1842883
1740494000242,3.5673606,-3.074155,3.5763388
1740494000247,3.558981,-3.1495724,3.839701
1740494000251,3.6535518,-3.0148985,3.9498343
1740494000256,3.839701,-2.6635494,3.567959
1740494000261,4.19524,-2.1140802,2.6982653
1740494000266,4.541202,-1.400608,1.5215151
1740494000271,5.035006,-0.65780693,-0.33997664
1740494000276,6.1183825,-0.5129577,-1.7046716
1740494000281,6.951565,-1.2270284,-1.6250644
1740494000286,7.3047094,-2.5677812,-0.3441665
1740494000293,7.8248496,-4.5112743,0.9103952
1740494000296,8.742428,-6.82946,1.1569979
1740494000303,10.022128,-9.324219,0.024540568
1740494000307,12.01171,-11.266515,-2.3654714
1740494000312,14.341269,-13.48175,-5.09127
1740494000317,16.56189,-15.819089,-5.8562174
1740494000321,17.674595,-17.751808,-4.052785
1740494000329,18.017565,-18.941727,-1.7729063
1740494000330,17.867329,-18.930952,-0.32022446
1740494000336,16.637907,-17.046118,0.29328972
1740494000343,14.4130945,-13.75409,0.14664486
1740494000344,12.005126,-10.350733,-0.7062895
1740494000350,9.865308,-7.44896,-1.7274165
1740494000355,8.1343,-5.321712,-2.2373815
1740494000362,6.7761893,-3.9947255,-2.047641
1740494000366,5.710171,-3.2519245,-1.6484078
1740494000370,4.9081135,-2.9921536,-1.0761937
1740494000374,4.390966,-3.1004913,-0.4950012
1740494000381,4.161721,-3.5583823,0.026934769
1740494000385,4.220379,-4.3047748,0.9295488
1740494000391,4.582502,-5.2103815,1.3958195
1740494000396,5.213374,-6.157887,1.7208325
1740494000401,5.920861,-7.001843,2.0021513
1740494000405,6.4445925,-7.657854,2.2774844
1740494000410,6.6923923,-8.1881695,2.1493945
1740494000414,6.8049197,-8.451532,1.9668367
1740494000419,6.992266,-8.623316,1.9075803
1740494000425,7.2909427,-8.7053175,1.9506758
1740494000430,7.557896,-8.767567,1.7842789
1740494000434,7.711724,-8.72507,1.572392
1740494000439,7.7506294,-8.576629,1.3120226
1740494000445,7.709928,-8.3390045,1.282095
1740494000450,7.607576,-8.050503,1.3215994
1740494000454,7.487866,-7.7344685,1.4790181
1740494000460,7.289147,-7.499837,1.6424223
1740494000478,6.9264255,-7.351396,1.4838065
1740494000479,6.806117,-7.117363,1.5795746
1740494000479,6.717531,-6.8761473,1.8441339
1740494000480,6.6666546,-6.595427,1.9393034
1740494000483,6.5864487,-6.341043,1.8968062
1740494000489,6.277597,-6.1225724,0.7954735
1740494000493,6.2351,-5.8083334,0.8888474
1740494000499,6.1824274,-5.5766945,1.7579426
1740494000503,6.261436,-5.4408236,2.1649568
1740494000509,6.3823433,-5.282806,1.87047
1740494000514,6.487688,-5.0942626,1.365892
1740494000519,6.5283895,-4.8973393,0.9911995
1740494000524,6.579865,-4.7219644,0.87807345
1740494000529,6.6750345,-4.5914803,0.79966336
1740494000534,6.8240733,-4.5579615,0.7110779
1740494000538,7.0730705,-4.655525,0.44113165
1740494000545,7.345411,-4.7656584,0.15203181
1740494000549,7.5549035,-4.883573,0.12569559
1740494000553,7.7009497,-4.9775453,-0.320823
1740494000559,7.741651,-5.1122193,-0.46866497
1740494000563,7.7386584,-5.291186,-0.53211135
1740494000569,7.7452426,-5.529409,-0.516549
1740494000574,7.73387,-5.813122,-0.4369418
1740494000579,7.6027875,-6.0890536,-0.3405752
1740494000586,7.48188,-6.2512608,-0.19752164
1740494000588,7.259818,-6.339846,-0.04189853
1740494000594,7.038953,-6.3392477,0.11372458
1740494000598,6.847417,-6.3464303,0.31244332
1740494000605,6.655881,-6.2620344,0.46267948
1740494000607,6.506243,-6.217143,0.5650316
1740494000614,6.353613,-6.179435,0.6218939
1740494000618,6.2524576,-6.133945,0.59974754
1740494000623,6.1644707,-6.1303535,0.5482722
1740494000629,6.1010246,-6.160281,0.42676646
1740494000633,6.042965,-6.145916,0.30166942
1740494000638,6.0010667,-6.0561333,0.260968
1740494000644,5.981314,-6.0082493,0.23702596
1740494000647,5.929839,-5.940613,0.2753332
1740494000654,5.945401,-5.9250507,0.31364042
1740494000656,5.9867015,-5.9382186,0.41000703
1740494000664,6.0860605,-5.9507885,0.4818331
1740494000666,6.1608796,-5.979519,0.52971715
1740494000672,6.2075663,-5.9837084,0.65062433
1740494000678,6.2368956,-5.9944825,0.7673417
1740494000683,6.2632318,-6.0142345,0.8158242
1740494000688,6.30513,-6.0681043,0.8403648
1740494000694,6.341642,-6.1357403,1.0115502
1740494000697,6.3631897,-6.241684,0.99898064
1740494000707,6.367379,-6.3218894,0.9696517
1740494000708,6.3883286,-6.4146647,0.84694886
1740494000714,6.3721676,-6.443395,0.7649474
1740494000716,6.3859344,-6.417059,0.7074866
1740494000723,6.353014,-6.425439,0.7092823
1740494000727,6.294955,-6.4218473,0.7009025
1740494000734,6.2943563,-6.3985043,0.6194997
1740494000736,6.30932,-6.4206505,0.6985083
1740494000742,6.3153057,-6.4230447,0.7308301
1740494000747,6.3643866,-6.408081,0.76195467
1740494000756,6.4218473,-6.4098763,0.919972
1740494000757,6.4589577,-6.407482,1.0720038
1740494000764,6.559514,-6.4224463,1.2210429
1740494000766,6.6361284,-6.4164605,1.2761095
1740494000772,6.707356,-6.419453,1.3497312
1740494000777,6.7444663,-6.4032927,1.4359225
1740494000783,6.7522473,-6.3763576,1.5466543
1740494000786,6.749853,-6.357204,1.602918
1740494000791,6.689998,-6.335656,1.6118963
1740494000797,6.613982,-6.355408,1.5987282
1740494000801,6.5744777,-6.4002995,1.5568297
1740494000806,6.547543,-6.5020533,1.4514848
1740494000813,6.5385647,-6.6205664,1.3323733
1740494000814,6.564901,-6.7731967,1.158195
1740494000824,6.578069,-6.923433,0.91817635
1740494000825,6.64391,-7.1365166,1.027711
1740494000830,6.7330937,-7.4082584,0.96546185
1740494000836,6.894104,-7.726089,0.7224504
1740494000846,7.0826473,-8.098388,0.5386954
1740494000847,7.2382703,-8.418612,0.41060558
1740494000849,7.4627266,-8.787319,0.3633201
1740494000860,7.641693,-9.178771,0.2777274
1740494000863,7.81647,-9.5732155,0.3274071
1740494000865,7.960122,-9.970055,0.46327803
1740494000871,8.069058,-10.366295,0.61291564
1740494000874,8.215703,-10.779295,0.7098808
1740494000880,8.343194,-11.101315,0.9115923
1740494000884,8.494628,-11.361684,1.3730747
1740494000889,8.613739,-11.592725,1.7890673
1740494000895,8.762778,-11.810597,2.1571758
1740494000901,8.9602995,-12.050615,2.4366987
1740494000905,9.114726,-12.366651,2.5390508
1740494000910,9.20391,-12.649166,2.3415294
1740494000915,9.228451,-12.838906,2.0500352
1740494000921,9.273342,-13.007099,1.6178818
1740494000923,9.360131,-13.119627,0.9032126
1740494000930,9.481039,-13.046603,0.008978256
1740494000935,9.61272,-12.69705,-0.85413146
1740494000944,9.8042555,-12.0805435,-1.7357962
1740494000945,10.0029745,-11.3323555,-2.5127146
1740494000949,10.228029,-10.574591,-2.9993362
1740494000955,10.447698,-9.849147,-3.4404678
1740494000960,10.616488,-9.184157,-3.7068229
1740494000964,10.616488,-9.184157,-3.7068229
1740494000969,10.681132,-8.5778265,-3.8073792
1740494000973,10.636241,-8.067263,-3.7427359
1740494000980,10.55843,-7.619547,-3.5805287
1740494000984,10.457274,-7.1490865,-3.2848446
1740494000990,10.329783,-6.716933,-2.870648
1740494000993,10.169372,-6.452972,-2.4450784
1740494001000,9.928156,-6.3943143,-2.007538
1740494001004,9.671378,-6.3578024,-1.6023195
1740494001007,9.424176,-6.31351,-1.1605892
1740494001014,9.202114,-6.2859764,-0.6961141
1740494001019,8.988432,-6.282984,-0.17776948
1740494001023,8.632295,-6.385336,0.26276365
1740494001029,8.25401,-6.4948707,0.6805518
1740494001034,7.9301944,-6.6103907,1.1091139
1740494001039,7.7368627,-6.6349316,1.459266
1740494001043,7.6572556,-6.7480574,1.8189948
1740494001049,7.5908165,-6.896498,1.8968062
1740494001053,7.4585366,-7.0784574,1.9021933
1740494001058,7.1383123,-7.2352777,1.7968484
1740494001064,6.716933,-7.368156,0.878672
1740494001068,6.4727244,-7.551312,1.234211
1740494001073,6.4242415,-7.831434,1.8579005
1740494001079,6.6522894,-8.157643,1.9003977
1740494001083,6.7725983,-8.448539,1.5825673
1740494001089,6.8982935,-8.722675,1.2563573
1740494001092,6.9611416,-8.990228,1.1228806
1740494001098,6.9252286,-9.165004,1.0187328
1740494001103,6.8683662,-9.217078,1.0971429
1740494001108,6.932411,-9.31524,1.0253168
1740494001113,6.952163,-9.259575,0.6464345
1740494001118,6.9306154,-9.027337,0.15203181
1740494001122,6.9330096,-8.67539,-0.26036942
1740494001128,6.9186444,-8.208521,-1.0061632
1740494001133,7.097611,-7.5908165,-1.0031705
1740494001139,7.294534,-7.059902,-3.2231941
1740494001141,7.6590514,-6.3584013,-4.4119153
1740494001147,7.7811556,-5.746084,-4.701015
1740494001153,7.7087307,-5.336077,-3.66672
1740494001157,7.65127,-5.0158525,-2.831742
1740494001163,7.515399,-4.782418,-2.0039468
1740494001165,7.4208283,-4.578911,-0.777517
1740494001173,7.599196,-4.458602,0.28790274
1740494001175,7.9607205,-4.4861355,0.81642276
1740494001183,8.24204,-4.665102,0.9343372
1740494001186,8.26239,-4.8404775,0.7290344
1740494001192,8.260594,-4.985925,0.55246204
1740494001197,8.34499,-5.3288946,0.53211135
1740494001201,8.364742,-5.7616463,0.45250413
1740494001207,8.207323,-6.2752028,0.30765492
1740494001211,7.8050976,-6.7654157,0.25558102
1740494001217,7.1580644,-7.0820484,0.12030864
1740494001224,6.4008985,-7.3178773,-0.18555063
1740494001225,5.876568,-7.599795,-0.4878186
1740494001233,5.556942,-7.8344264,-0.5674258
1740494001236,5.2355204,-7.972093,-0.48602295
1740494001242,4.8644195,-7.963713,-0.25558102
1740494001245,4.5872903,-7.889493,0.08080431
1740494001252,4.4903255,-7.6530657,0.45609543
1740494001257,4.482544,-7.340024,0.80205756
1740494001260,4.585495,-6.980295,1.0726024
1740494001267,4.8003745,-6.6367273,1.3096284
1740494001270,4.9865236,-6.3105173,1.3030443
1740494001276,5.0679264,-6.0465565,1.2036849
1740494001282,4.9643774,-5.805341,1.0654198
1740494001286,4.7746367,-5.5683146,0.93493575
1740494001291,4.4358573,-5.301361,0.8643068
1740494001295,3.9444473,-5.0745106,0.74639237
1740494001301,3.4213142,-4.785411,0.66139823
1740494001305,3.110068,-4.4807487,0.4297592
1740494001310,2.9634233,-4.2521024,0.31663316
1740494001317,2.9400797,-4.03004,0.20410569
1740494001318,2.956839,-3.8624458,0.16699557
1740494001326,2.9987376,-3.7044287,0.16400282
1740494001330,3.1842883,-3.6361938,0.36990416
1740494001337,3.4045548,-3.5619736,0.16340427
1740494001339,3.41473,-3.5338416,-0.061052144
1740494001345,3.3387144,-3.5272577,-0.29388827
1740494001350,3.3554738,-3.5942953,-0.4369418
1740494001360,3.4835634,-3.6733038,-0.45130703
1740494001363,3.7032316,-3.7912183,-0.40821138
1740494001364,3.9516299,-3.9474401,-0.26276365
1740494001370,4.344279,-4.14975,0.38726214
1740494001373,4.575918,-4.2239704,0.20350714
1740494001379,4.59986,-4.1533413,0.044891283
1740494001384,4.7429137,-4.150947,0.17597382
1740494001390,4.9416323,-4.107253,0.4961983
1740494001393,5.0571527,-4.022857,0.7565677
1740494001399,5.1080294,-3.9558198,1.0714053
1740494001403,5.103241,-3.8905778,1.4664485
1740494001407,5.0643353,-3.8744168,1.7944542
1740494001414,5.0505686,-3.8959646,2.1643584
1740494001425,5.0374002,-3.9312792,2.496554
1740494001425,5.0505686,-3.99293,2.7365725
1740494001437,5.121796,-4.064756,2.9741971
1740494001438,5.3247046,-4.1132383,3.2800562
1740494001438,5.673061,-3.9881415,3.5218706
1740494001453,6.220136,-3.6535518,3.6332011
1740494001454,6.703765,-3.0753522,2.9628246
1740494001454,6.918046,-2.2762873,0.8912416
1740494001457,7.5848308,-1.6310499,-1.9818004
1740494001495,8.641273,-2.0841527,-3.6050692
1740494001496,9.169792,-3.5715504,-3.2052376
1740494001496,9.779117,-5.820903,-1.3413515
1740494001496,10.670359,-8.461707,0.40761283
1740494001496,11.872847,-11.020511,0.91697925
1740494001497,13.6092415,-13.007099,0.17118542
1740494001497,15.911864,-14.573505,-1.7723078
1740494001497,18.189348,-15.844229,-4.0557775
1740494001502,19.548656,-16.708534,-4.6136265
1740494001508,19.539679,-16.977882,-3.3626564
1740494001517,18.428171,-16.031574,-1.6927006
1740494001517,16.257229,-13.65533,-0.6973112
1740494001522,13.5697365,-10.778097,-0.39384618
1740494001525,10.983999,-8.168418,-0.47465047
1740494001531,8.838794,-6.1345434,-0.7038953
1740494001537,7.1646485,-4.638766,-0.7906851
1740494001540,5.8771667,-3.5954924,-0.5554548
1740494001547,4.8542438,-2.9753942,-0.108936176
1740494001552,4.056975,-2.6737247,0.28191724
1740494001556,3.4380736,-2.6168625,0.5859809
1740494001560,3.0508115,-2.8844144,0.87328506
1740494001566,2.92751,-3.3991678,1.2054806
1740494001572,3.1771057,-4.0533834,1.5275006
1740494001575,3.5464113,-4.821324,1.7292122
1740494001581,3.9175124,-5.6000376,1.9662381
1740494001587,4.532822,-6.38773,2.2619221
1740494001597,5.1277814,-7.0449386,2.3959973
1740494001598,5.5683146,-7.460931,2.2170308
1740494001600,5.995081,-7.7973166,2.1679497
1740494001612,6.4727244,-8.149264,1.9243397
1740494001613,6.8863225,-8.519168,1.7274165
1740494001616,7.128137,-8.801684,1.389834
1740494001621,7.289746,-8.996213,1.06123
1740494001627,7.3992805,-9.136273,0.7493851
1740494001630,7.4681134,-9.2625675,0.4985925
1740494001636,7.61835,-9.32781,0.374094
1740494001641,7.72968,-9.305663,0.26036942
1740494001648,7.86615,-9.174581,0.47644615
1740494001650,7.9625163,-8.834005,0.8379706
1740494001656,8.024766,-8.403648,1.1384429
1740494001661,7.9451585,-7.8649526,1.1821371
1740494001666,7.7757688,-7.315483,1.1162965
1740494001672,7.5201874,-6.7468605,0.9151836
1740494001673,7.2622123,-6.23091,0.623091
1740494001679,6.993463,-5.7389016,0.3788824
1740494001684,6.8049197,-5.313332,0.14664486
1740494001690,6.7109475,-4.9823337,-0.010175358
1740494001696,6.706159,-4.735132,-0.28311434
1740494001699,6.706159,-4.5603557,-0.5422867
1740494001704,6.741473,-4.3939586,-0.7517793
1740494001710,6.817489,-4.3873744,-0.8738836
1740494001714,6.89171,-4.4645877,-0.8050503
1740494001719,6.9006877,-4.7219644,-0.60693014
1740494001724,6.8486137,-5.100847,-0.33638534
1740494001730,6.7923503,-5.4725466,-0.074220255
1740494001734,6.6870055,-5.7664347,0.16879122
1740494001739,6.5427547,-5.9609637,0.4261679
1740494001744,6.39611,-6.054936,0.5021838
1740494001750,6.26802,-6.1064115,0.4405331
1740494001754,6.132149,-6.1519012,0.39624038
1740494001758,6.0645127,-6.1938,0.3429694
1740494001763,6.043564,-6.3003416,0.18974048
1740494001769,6.153697,-6.39611,0.30226797
1740494001774,6.2769985,-6.4966664,0.6793547
1740494001778,6.4020953,-6.606201,0.7398083
1740494001783,6.47033,-6.642114,0.760159
1740494001788,6.4787097,-6.581062,0.9307459
1740494001799,6.4583592,-6.449381,1.1306617
1740494001799,6.43322,-6.337452,1.2138603
1740494001803,6.381745,-6.181829,1.2485762
1740494001808,6.3446345,-6.06152,1.3724761
1740494001813,6.269217,-5.9364233,1.4077905
1740494001819,6.143522,-5.8586116,1.3670892
1740494001823,6.055535,-5.78499,1.3204023
1740494001828,5.928642,-5.689222,1.2623428
1740494001834,5.8478374,-5.61979,1.2306197
1740494001839,5.7855883,-5.571307,1.2330139
1740494001858,5.755661,-5.5192337,1.1587936
1740494001863,5.7359085,-5.529409,1.0336965
1740494001863,5.765238,-5.5862713,0.7990648
1740494001864,5.817312,-5.680842,0.60453594
1740494001864,5.844845,-5.7825956,0.41718966
1740494001867,5.927445,-5.8149176,0.4441244
1740494001873,6.0663085,-5.8382607,0.46208093
1740494001880,6.18542,-5.883152,0.4441244
1740494001881,6.347627,-5.9519854,0.40521863
1740494001888,6.476914,-6.0387754,0.35793316
1740494001892,6.640917,-6.095039,0.25977087
1740494001897,6.811504,-6.169858,0.12569559
1740494001903,6.9767036,-6.233304,0.051475335
1740494001907,7.153276,-6.3272767,-0.051475335
1740494001913,7.2963295,-6.4224463,-0.110731825
1740494001918,7.441777,-6.5044475,-0.108337626
1740494001923,7.5321584,-6.5720835,-0.15562311
1740494001930,7.6464815,-6.6044054,-0.16998832
1740494001931,7.73806,-6.6480994,-0.107739076
1740494001937,7.855376,-6.6947865,0.010773907
1740494001950,7.957728,-6.707356,0.2184709
1740494001951,8.074445,-6.6774287,0.41838676
1740494001952,8.170214,-6.609194,0.5710171
1740494001957,8.210316,-6.4858923,0.88046765
1740494001966,8.227076,-6.3063273,1.1593921
1740494001966,8.170214,-6.1243677,1.4137762
1740494001971,8.110358,-5.9807158,1.5729905
1740494001983,7.9864583,-5.8484364,1.6226702
1740494001984,7.855376,-5.7987566,1.678934
1740494001985,7.773973,-5.8604074,1.6412252
1740494001990,7.7248917,-5.981913,1.5676036
1740494001997,7.699753,-6.141726,1.5496471
1740494002000,7.702147,-6.333262,1.532289
1740494002006,7.6728177,-6.545149,1.395221
1740494002011,7.669825,-6.8462195,1.1988965
1740494002016,7.702147,-7.20116,1.0247183
1740494002021,7.757812,-7.542334,0.7493851
1740494002028,7.823054,-7.9661074,0.37708676
1740494002031,7.921815,-8.3390045,0.1604115
1740494002036,8.052897,-8.768166,-0.130484
1740494002041,8.127118,-9.136273,-0.31124622
1740494002047,8.245032,-9.467871,-0.15801731
1740494002050,8.359954,-9.770737,-0.038307227
1740494002056,8.476671,-10.057443,0.076614454
1740494002061,8.597578,-10.362105,0.08439561
1740494002067,8.719084,-10.588956,0.20949265
1740494002071,8.871116,-10.8182,0.6745663
1740494002076,9.117719,-11.060015,1.1947067
1740494002079,9.483433,-11.365275,1.7968484
1740494002086,9.795278,-11.683105,2.202067
1740494002091,9.917382,-12.064383,2.4426842
1740494002095,9.879075,-12.440272,2.4504654
1740494002101,9.744401,-12.881404,2.208651
1740494002105,9.674969,-13.36623,1.9033904
1740494002111,9.838972,-14.066533,1.6214731
1740494002115,9.840768,-14.715363,1.1522095
1740494002121,9.527127,-14.968549,0.5267244
1740494002126,8.987235,-14.744691,-0.13108255
1740494002129,8.302493,-14.094067,-0.7793127
1740494002136,7.6560583,-13.0759325,-1.5747862
1740494002141,7.1688385,-11.909956,-2.3953989
1740494002144,6.8384385,-10.694899,-3.0346506
1740494002151,6.8647747,-9.664794,-3.5583823
1740494002155,7.020398,-8.81605,-3.7343562
1740494002161,7.1706343,-8.119336,-3.6613328
1740494002165,7.3968863,-7.5734587,-3.4500446
1740494002171,7.6584525,-7.144298,-3.0190883
1740494002175,7.9325886,-6.7001734,-2.5438392
1740494002180,8.257602,-6.2045736,-2.0338743
1740494002185,8.529344,-5.903503,-1.5280992
1740494002191,8.698134,-5.761048,-1.0001777
1740494002195,8.789713,-5.7245364,-0.47225627
1740494002204,8.805874,-5.707777,-0.037708677
1740494002205,8.695741,-5.7496753,0.33518824
1740494002209,8.508394,-5.8681884,0.6973112
1740494002215,8.303091,-5.973533,1.0307038
1740494002220,8.118738,-5.952584,1.3874398
1740494002225,8.008605,-5.869984,1.5448587
1740494002229,7.8529816,-5.8574142,1.5969325
1740494002234,7.6919713,-5.9483943,1.560421
1740494002241,7.4106526,-6.0106435,1.578976
1740494002246,6.962937,-6.166865,0.7026982
1740494002249,6.805518,-6.3224883,1.1815386
1740494002255,6.661866,-6.558317,1.7615339
1740494002259,6.716933,-6.7929487,1.7788919
1740494002264,6.851008,-7.005434,1.7561469
1740494002269,6.8522053,-7.1466923,1.7579426
1740494002275,6.884527,-7.3747396,1.774702
1740494002279,7.0275807,-7.587225,1.5376761
1740494002285,7.2209125,-7.739856,0.8218097
1740494002287,7.3083005,-7.711724,-0.25917232
1740494002295,7.433996,-7.586028,-0.7038953
1740494002297,7.5345526,-7.3364325,-1.0630256
1740494002305,7.687183,-6.87914,-2.1398177
1740494002308,8.040926,-6.3685765,-2.7407625
1740494002314,8.070854,-5.935226,-2.0787656
1740494002319,8.457518,-5.433042,-4.5543704
1740494002324,8.411429,-5.134964,-4.993706
1740494002329,8.213907,-5.0242324,-3.7217865
1740494002334,8.1480665,-5.01286,-2.569577
1740494002339,8.008006,-4.9362454,-1.3102269
1740494002345,7.9146323,-4.8141413,-0.5482722
1740494002347,8.082825,-4.72376,0.095768064
1740494002357,8.506598,-4.7417164,0.33279404
1740494002359,8.940548,-4.8440685,0.09636662
1740494002364,9.202114,-5.0403934,-0.39683893
1740494002366,8.951322,-5.1409497,-1.0247183
1740494002372,8.5060005,-5.6102133,-1.4850036
1740494002383,7.937377,-6.2746043,-1.4036007
1740494002383,7.342418,-6.8809357,-0.98102415
1740494002388,6.703166,-7.355586,-0.6039374
1740494002392,6.205771,-7.765593,-0.08559271
1740494002397,6.039374,-8.219893,0.45968673
1740494002404,6.0244102,-8.613141,0.8265981
1740494002405,5.864597,-8.796297,0.83497787
1740494002412,5.761048,-8.783728,0.7110779
1740494002417,5.774216,-8.670003,0.61052144
1740494002422,5.7185507,-8.523956,0.55006784
1740494002427,5.5940523,-8.324639,0.61112
1740494002431,5.415086,-8.059482,0.65062433
1740494002437,5.2103815,-7.7440453,0.7320272
1740494002443,5.0463786,-7.4705076,0.8110358
1740494002446,4.84347,-7.1167645,0.9564836
1740494002453,4.654927,-6.773795,1.1360487
1740494002457,4.4340615,-6.3847375,1.2437878
1740494002462,4.1533413,-5.9723363,1.4083891
1740494002466,3.809175,-5.483919,1.3221979
1740494002472,3.3345244,-4.92607,1.1749545
1740494002476,2.9358897,-4.3329067,0.7015011
1740494002481,2.7389667,-3.7858315,0.39205053
1740494002487,2.7204118,-3.3626564,0.19033903
1740494002492,2.822764,-3.0603883,0.11492168
1740494002496,3.032855,-2.9047651,0.46267948
1740494002503,3.293823,-2.8030117,0.15801731
1740494002505,3.4290953,-2.7234044,0.06703765
1740494002513,3.3961751,-2.6449943,-0.11671733
1740494002515,3.426701,-2.705448,-0.22146365
1740494002522,3.5122938,-2.8341362,-0.20290859
1740494002525,3.6002808,-3.0340521,-0.22924481
1740494002531,3.7696705,-3.3129766,-0.18734628
1740494002535,3.927688,-3.5895069,-0.044891283
1740494002543,4.2658687,-3.9103298,0.092176765
1740494002544,4.23654,-4.043208,-0.06344634
1740494002550,4.2395325,-4.185663,-0.12330139
1740494002555,4.4023385,-4.2999864,0.0796072
1740494002564,4.5124717,-4.292804,0.29149407
1740494002565,4.5783124,-4.1772833,0.41120413
1740494002570,4.674679,-4.0294414,0.5410896
1740494002576,4.7578773,-3.8456864,0.78290397
1740494002581,4.766257,-3.679888,1.0193313
1740494002585,4.7776294,-3.58412,1.3126211
1740494002592,4.7776294,-3.58412,1.3126211
1740494002594,4.7285485,-3.5793316,1.6699557
1740494002600,4.6740804,-3.681085,2.087744
1740494002606,4.6459484,-3.8738184,2.6102784
1740494002610,4.6220064,-4.111443,3.1196449
1740494002615,4.660912,-4.433463,3.6290112
1740494002620,4.7243586,-4.685453,3.8839936
1740494002624,4.7758336,-4.8698063,3.8444893
1740494002631,4.799776,-4.8524485,3.5715504
1740494002633,5.0146556,-4.705205,3.2130187
1740494002641,5.659893,-4.2676644,2.802413
1740494002644,6.5098343,-3.205836,2.516306
1740494002649,7.4681134,-1.7824832,1.1563994
1740494002657,9.810242,-0.7517793,-1.8231846
1740494002659,12.215217,-1.2503718,-2.705448
1740494002665,13.610438,-3.6086605,-0.018555064
1740494002668,14.812926,-6.525397,2.4708161
1740494002675,16.521788,-9.350554,2.4468741
1740494002683,19.015348,-12.19307,0.18734628
1740494002684,19.612701,-15.0583315,-2.9191303
1740494002690,19.612701,-17.472286,-5.4061074
1740494002694,19.612701,-19.073408,-6.0567317
1740494002700,19.612701,-19.6133,-5.2397103
1740494002705,19.433136,-17.95771,-3.6715083
1740494002709,14.5405855,-14.583681,-2.28347
1740494002715,10.720636,-11.013328,-1.3467385
1740494002718,8.198944,-7.9966335,-0.96187055
1740494002725,6.403891,-5.590461,-0.8702923
1740494002728,4.8380833,-3.6463692,-0.62967503
1740494002733,3.4596214,-2.260725,-0.30705637
1740494002741,2.4732103,-1.3335704,0.09935937
1740494002743,1.9363106,-0.93373865,0.60812724
1740494002749,1.7298107,-0.9175778,1.0271125
1740494002754,1.7980455,-1.3066356,1.1887212
1740494002760,2.071583,-2.088941,1.2551602
1740494002763,2.5031378,-3.1962593,1.287482
1740494002768,3.0059202,-4.590882,1.4443022
1740494002775,3.8780081,-6.203377,1.6160861
1740494002778,5.0320134,-7.787141,1.5741876
1740494002784,6.3045316,-9.199121,1.5239093
1740494002788,7.1945763,-10.187927,1.2479776
1740494002794,7.5531077,-10.827777,0.4213795
1740494002799,7.6614456,-11.086949,-0.09995792
1740494002803,7.571663,-10.854114,5.985504E-4
1740494002808,7.4256167,-10.026319,0.035913024
1740494002815,7.257424,-9.107543,0.45489833
1740494002817,7.1191587,-8.483255,0.7428011
1740494002822,7.1580644,-8.166622,1.0283096
1740494002829,7.1221514,-7.781754,1.3150153
1740494002833,6.9120603,-7.349601,1.6005238
1740494002838,6.6295447,-6.9731126,1.8339585
1740494002844,6.39192,-6.645705,2.0332758
1740494002847,6.211158,-6.375759,2.1068976
1740494002855,5.995081,-6.159084,2.0308816
1740494002856,5.798158,-5.9358244,1.7926586
1740494002861,5.7029886,-5.7179523,1.7304093
1740494002866,5.761048,-5.4863133,1.6065093
1740494002871,5.8424506,-5.2929816,1.4556746
1740494002879,5.949591,-5.1200004,1.1354501
1740494002881,6.0740895,-4.9655743,0.8690952
1740494002885,6.1626754,-4.879383,0.664391
1740494002891,6.2979474,-4.829105,0.56682724
1740494002898,6.4721255,-4.8261123,0.44352585
1740494002900,6.6546836,-4.883573,0.415394
1740494002906,6.9000893,-4.9877205,0.3764882
1740494002911,7.1023993,-5.103241,0.32800564
1740494002915,7.271789,-5.230732,0.25258827
1740494002920,7.429208,-5.3737855,0.29388827
1740494002925,7.6255326,-5.5324016,0.28550854
1740494002931,7.7667904,-5.6826377,0.23403321
1740494002936,7.8475947,-5.844845,0.15741876
1740494002941,7.827244,-5.9621606,0.13946225
1740494002946,7.811083,-6.0519433,0.017956512
1740494002949,7.739257,-6.130952,-0.009576807
1740494002957,7.680599,-6.143522,0.011372458
1740494002960,7.5746555,-6.1764417,0.05686229
1740494002965,7.4202294,-6.173449,0.0700304
1740494002971,7.240066,-6.131551,0.12090719
1740494002976,7.028179,-6.079477,0.2160767
1740494002979,6.8043213,-6.0531406,0.25019407
1740494002985,6.59004,-6.002862,0.29149407
1740494002991,6.409278,-5.9358244,0.25977087
1740494002995,6.269816,-5.883152,0.29149407
1740494003000,6.1806316,-5.835268,0.30286652
1740494003005,6.151303,-5.7628436,0.3728969
1740494003011,6.133945,-5.6736593,0.37229836
1740494003016,6.1357403,-5.659294,0.43754035
1740494003019,6.1530986,-5.659294,0.51475334
1740494003025,6.211158,-5.7017913,0.55844754
1740494003031,6.2608376,-5.7161565,0.5153519
1740494003035,6.3003416,-5.746084,0.46926352
1740494003041,6.401497,-5.7975593,0.3800795
1740494003045,6.509236,-5.916671,0.29867667
1740494003050,6.6480994,-6.021417,0.18674773
1740494003055,6.793547,-6.081272,0.22325931
1740494003060,6.967127,-6.1955953,0.3854665
1740494003066,7.1448965,-6.257845,0.5530606
1740494003068,7.264008,-6.35062,0.5931635
1740494003075,7.3669586,-6.42903,0.7092823
1740494003080,7.40766,-6.505645,0.7338228
1740494003085,7.4387846,-6.578069,0.7194576
1740494003090,7.4070616,-6.6044054,0.76195467
1740494003095,7.3645644,-6.603208,0.82121116
1740494003100,7.2711906,-6.6103907,0.85173726
1740494003103,7.165846,-6.5990186,0.82360536
1740494003110,7.038953,-6.554127,0.85054016
1740494003114,6.9557543,-6.43741,0.8631097
1740494003118,6.8438253,-6.301539,0.90381116
1740494003125,6.7606273,-6.169858,0.90740246
1740494003129,6.670246,-6.081871,1.049259
1740494003134,6.611588,-6.017826,1.2348095
1740494003139,6.6121864,-5.9980736,1.3467385
1740494003144,6.591836,-5.981913,1.4814123
1740494003149,6.5684924,-6.0142345,1.5478514
1740494003154,6.5804634,-6.047155,1.6334441
1740494003158,6.591836,-6.126762,1.678934
1740494003165,6.6774287,-6.1542954,1.6292542
1740494003167,6.7983356,-6.171055,1.6238673
1740494003175,6.9479733,-6.2740054,1.6077064
1740494003178,7.069479,-6.457162,1.4873978
1740494003185,7.195773,-6.6774287,1.4173675
1740494003187,7.339425,-6.96174,1.3281834
1740494003195,7.529764,-7.277775,1.163582
1740494003197,7.693767,-7.587225,1.0887632
1740494003203,7.833828,-7.8906903,1.0295067
1740494003209,7.9768815,-8.223484,0.973243
1740494003214,8.040926,-8.498219,0.93852705
1740494003217,8.08462,-8.814852,0.91937345
1740494003224,8.069058,-9.102157,0.8451532
1740494003227,8.063073,-9.404425,0.7577648
1740494003235,8.095394,-9.734824,0.75716627
1740494003237,8.076839,-9.964667,0.88944596
1740494003244,8.059482,-10.2406,1.0546459
1740494003247,8.076241,-10.487202,1.1378443
1740494003253,8.099585,-10.684724,1.3700819
1740494003258,8.202535,-10.857705,1.6663644
1740494003263,8.400655,-11.092337,1.8896236
1740494003267,8.593389,-11.405977,2.0111294
1740494003274,8.848969,-11.811195,2.0937295
1740494003276,9.109339,-12.228385,2.0177135
1740494003283,9.346964,-12.609662,1.7699136
1740494003285,9.497798,-12.890382,1.3676877
1740494003294,9.670779,-13.055582,0.7691373
1740494003296,9.882666,-13.070545,0.16220717
1740494003302,10.0903635,-12.929886,-0.53330845
1740494003307,10.306439,-12.579734,-1.3150153
1740494003313,10.492589,-12.005724,-2.0919337
1740494003315,10.614694,-11.177331,-2.7150247
1740494003322,10.64043,-10.277111,-3.2429461
1740494003328,10.691308,-9.414001,-3.5529952
1740494003334,10.697892,-8.616732,-3.6954503
1740494003336,10.669162,-7.8463974,-3.5350387
1740494003342,10.489596,-7.268198,-3.1531637
1740494003345,10.248979,-6.825869,-2.7461493
1740494003363,9.990405,-6.4326215,-2.3558946
1740494003365,9.745598,-6.1345434,-1.9231426
1740494003365,9.54209,-5.849035,-1.5095441
1740494003366,9.346964,-5.616797,-1.0875661
1740494003370,9.139865,-5.473145,-0.6404489
1740494003376,8.923788,-5.407305,-0.25258827
1740494003380,8.698134,-5.4623713,0.1921347
1740494003385,8.401254,-5.6323595,0.66618663
1740494003390,8.06008,-5.777807,1.0259154
1740494003395,7.8086886,-5.8466406,1.3694834
1740494003402,7.7248917,-5.834071,1.816002
1740494003404,7.773973,-5.9124813,2.0087352
1740494003411,7.7853456,-6.0609217,2.2122424
1740494003414,7.6404963,-6.1938,2.1817162
1740494003420,7.076063,-6.2249246,1.780089
1740494003426,6.707356,-6.205172,0.9768343
1740494003431,6.451775,-6.261436,1.3563153
1740494003437,6.652888,-6.4805055,1.8076223
1740494003438,6.869563,-6.7630215,1.6962919
1740494003454,6.881534,-6.952163,1.4634558
1740494003454,6.8599863,-7.00304,1.2443863
1740494003454,6.839636,-7.091625,1.18094
1740494003464,6.8641763,-7.241263,1.0528502
1740494003464,6.967127,-7.2526355,0.6775591
1740494003469,7.0341644,-7.180211,0.30107087
1740494003473,7.1006036,-7.107786,0.28191724
1740494003478,7.2783732,-6.9946604,-1.021127
1740494003484,7.4591355,-6.795343,-1.8267759
1740494003490,7.748235,-6.542156,-2.492364
1740494003494,8.072051,-6.278794,-3.3345244
1740494003500,8.327033,-6.0124393,-3.7894228
1740494003515,8.6574335,-5.8598084,-3.5811272
1740494003516,8.935161,-5.6904187,-3.2369606
1740494003517,9.029133,-5.485116,-2.902371
1740494003523,9.018359,-5.3163247,-2.2936451
1740494003523,8.944139,-5.1690817,-1.5939398
1740494003528,9.018958,-5.084686,-0.96546185
1740494003533,9.184157,-5.1385555,-0.46267948
1740494003537,9.388264,-5.2822075,-0.05686229
1740494003543,9.491214,-5.4420204,0.2160767
1740494003548,9.494206,-5.6521115,0.338181
1740494003553,9.36073,-5.967548,0.24720132
1740494003558,9.139266,-6.4128695,0.038307227
1740494003562,8.857947,-6.8863225,-0.090381116
1740494003569,8.464102,-7.335834,-0.22744916
1740494003573,7.97748,-7.7428484,-0.2681506
1740494003578,7.4226236,-8.04751,-0.39264908
1740494003583,6.9264255,-8.263587,-0.57281274
1740494003587,6.607398,-8.42759,-0.47285482
1740494003593,6.311714,-8.513183,-0.3465607
1740494003598,5.935226,-8.489241,-0.40880993
1740494003605,5.6150017,-8.38629,-0.35194764
1740494003607,5.317522,-8.169016,-0.21547815
1740494003613,5.081693,-7.889493,-0.0700304
1740494003618,4.9661727,-7.5644803,0.11971009
1740494003623,4.924873,-7.221511,0.40581718
1740494003629,4.8680105,-6.8438253,0.56084174
1740494003632,4.815338,-6.505645,0.6691794
1740494003641,4.8680105,-6.199785,0.8834604
1740494003642,4.996699,-5.9005103,0.8571242
1740494003649,5.033809,-5.573103,0.75956047
1740494003656,4.9296613,-5.283405,0.59974754
1740494003656,4.7680526,-5.085883,0.38067806
1740494003663,4.5058875,-4.951209,0.12689269
1740494003667,4.256292,-4.739322,-0.14065935
1740494003671,4.0922894,-4.5753193,-0.16280572
1740494003677,3.9743748,-4.405331,-0.25079262
1740494003682,4.0025067,-4.31076,-0.26156655
1740494003688,4.1503487,-4.2371383,-0.12928689
1740494003690,4.292804,-4.189853,-0.035913024
1740494003697,4.419098,-4.1078515,0.1592144
1740494003703,4.6046486,-4.019266,0.21428105
1740494003706,4.76087,-3.9917328,0.30466217
1740494003712,4.736928,-4.021062,0.2088941
1740494003717,4.613028,-3.9989154,0.055066638
1740494003722,4.4681787,-3.9175124,-0.0796072
1740494003727,4.4562078,-3.8235402,-0.29867667
1740494003732,4.540005,-3.834314,-0.5243302
1740494003736,4.699818,-3.8085763,-0.6171055
1740494003740,4.9135003,-3.7738605,-0.5446809
1740494003747,5.3881507,-3.867833,-0.29388827
1740494003757,5.4300494,-3.7313633,-0.45130703
1740494003757,5.2905874,-3.5565867,-0.6907272
1740494003761,5.380968,-3.4596214,-0.66259533
1740494003767,5.390545,-3.3141737,-0.6278794
1740494003771,5.3881507,-3.1812954,-0.64823014
1740494003774,5.3845596,-3.0101101,-0.54049104
1740494003781,5.28939,-2.8640637,-0.40462008
1740494003786,5.1864395,-2.7521348,-0.23523031
1740494003790,5.044583,-2.5570073,-0.13108255
1740494003795,4.871602,-2.3570917,-0.025737667
1740494003801,4.727351,-2.2942438,0.15322891
1740494003807,4.6657004,-2.291251,0.33279404
1740494003809,4.687248,-2.3768437,0.47405192
1740494003816,4.7758336,-2.5378537,0.6536171
1740494003822,4.824915,-2.6485856,0.7661445
1740494003824,4.9518075,-2.755726,0.88046765
1740494003830,4.9984946,-2.8766334,0.99060094
1740494003839,4.996699,-2.954445,1.0881647
1740494003839,4.981137,-3.0454245,1.2120646
1740494003844,5.1601033,-3.1848867,1.441908
1740494003850,5.365406,-3.2992098,1.6633717
1740494003856,5.6161985,-3.323152,1.8201919
1740494003862,6.0262055,-3.288436,1.7705121
1740494003865,6.5720835,-2.9789855,1.4903905
1740494003875,7.7350674,-2.3822308,0.9983821
1740494003875,9.61272,-1.2216414,-0.86131406
1740494003880,13.413515,-0.12569559,-4.5783124
1740494003886,17.492037,-0.017956512,-6.9970546
1740494003888,19.558832,-1.8501194,-5.5898623
1740494003893,19.612701,-5.752668,-2.4821887
1740494003899,19.569008,-10.201694,-0.54647654
1740494003904,19.367895,-13.718776,-0.8924387
1740494003908,19.612701,-16.247053,-2.4498668
1740494003915,19.612701,-18.049887,-4.0617633
1740494003922,19.612701,-18.833988,-5.257068
1740494003923,17.208923,-17.891272,-4.758476
1740494003929,13.842077,-15.315109,-2.4552538
1740494003935,10.99178,-12.117653,-0.35553896
1740494003939,8.962095,-8.874108,0.9911995
1740494003944,7.788338,-5.849035,1.7824832
1740494003950,6.983288,-3.4662056,1.9710265
1740494003961,6.0663085,-1.9393034,1.2401965
1740494003962,5.309142,-1.1025299,0.557849
1740494003963,4.8584337,-0.10055647,0.40821138
1740494003968,4.478953,0.6823475,0.54527944
1740494003972,4.3221326,1.3491327,0.65301853
1740494003979,4.1784806,1.6352397,0.7685388
1740494003984,3.774459,-0.019752163,1.2270284
1740494003989,4.1838675,-2.657564,1.1055226
1740494003993,4.770447,-3.4608185,1.0360907
1740494003997,5.5617304,-3.8947675,1.2814964
1740494004003,6.554127,-5.209184,1.2677298
1740494004008,7.373543,-6.8079123,1.644218
1740494004014,8.04751,-8.527548,1.2731167
1740494004019,8.547898,-10.065823,0.8996213
1740494004024,8.610147,-11.177929,0.38726214
1740494004028,8.544308,-11.559804,-0.16101007
1740494004033,8.531139,-11.259332,-0.091578215
1740494004037,8.444349,-10.884041,0.6051345
1740494004044,8.342596,-10.5680065,1.0785879
1740494004047,8.193557,-10.220847,1.0737995
1740494004053,7.9026613,-9.534309,1.0648212
1740494004058,7.587824,-8.606557,1.079785
1740494004063,7.1963716,-7.699154,0.9672575
1740494004068,6.6744356,-6.9348054,0.7158663
1740494004073,6.000468,-5.0385976,1.8118122
1740494004077,5.6443305,1.0600328,3.0556
1740494004084,5.5431757,-0.53091425,-4.238934
1740494004087,5.4474072,-3.8013937,-2.9789855
1740494004094,6.1626754,-3.9636009,-2.267309
1740494004097,6.9569516,-6.093243,-0.8619126
1740494004104,7.1383123,-7.153276,-1.4305356
1740494004107,7.3071036,-7.3466077,-1.3084313
1740494004113,7.8068933,-7.349002,-0.55126494
1740494004117,8.07265,-8.322245,-0.5506664
1740494004124,7.955932,-9.211093,-0.6015432
1740494004126,7.6387005,-10.269928,-0.6404489
1740494004133,7.7691846,-12.442068,-4.947019
1740494004138,9.221867,-13.117232,-0.10474633
1740494004143,9.242217,-11.623251,-0.7230489
1740494004146,8.513183,-10.770316,0.08020575
1740494004154,7.3232646,-10.151415,0.1448492
1740494004156,6.488885,-9.109339,-0.6099229
1740494004164,6.1129956,-7.8428063,-1.7130513
1740494004165,5.777209,-6.4068837,-2.1218612
1740494004173,5.474941,-5.1900306,-1.9668367
1740494004177,5.00448,-4.10845,-1.2306197
1740494004183,4.38498,-3.163339,-0.480636
1740494004185,4.197634,-2.461838,0.22325931
1740494004191,3.9552212,-2.0913353,0.6147113
1740494004197,3.6750996,-2.0506337,0.7565677
1740494004211,3.352481,-2.0446482,0.74878657
1740494004212,3.086126,-2.0518308,0.6051345
1740494004214,2.8802247,-2.0470424,0.62368953
1740494004216,2.718616,-2.098518,0.7272388
1740494004223,2.6288335,-2.336741,0.86610246
1740494004225,2.5510218,-2.7922378,1.01574
1740494004231,2.6420016,-3.369839,1.146224
1740494004236,2.9771898,-3.927688,1.3078327
1740494004240,3.2543187,-4.465186,1.2814964
1740494004245,3.5703533,-4.9494133,1.1061212
1740494004251,3.7421372,-5.5324016,0.85173726
1740494004255,4.1701007,-6.2644286,0.45609543
1740494004265,4.694431,-6.815095,0.17058687
1740494004265,5.0984526,-7.1820064,0.09935937
1740494004270,5.486912,-7.3460093,0.1376666
1740494004274,5.7825956,-7.240066,0.23163901
1740494004280,6.192004,-6.6959834,-0.8643068
1740494004284,6.5840545,-5.866991,0.18614918
1740494004288,6.9904704,-5.0763063,2.0153193
1740494004294,7.606379,-5.168483,2.7407625
1740494004300,8.338406,-6.118981,2.168548
1740494004304,9.078215,-7.3867106,0.88765025
1740494004309,9.598354,-8.289924,-0.7493851
1740494004313,9.598354,-8.289924,-0.7493851
1740494004319,9.74859,-8.176797,-2.088941
1740494004325,9.799467,-7.6470804,-1.7818847
1740494004330,10.226234,-6.558317,1.2545617
1740494004335,10.304046,-5.5910597,-5.9543796
1740494004340,9.846154,-5.7383027,-6.2632318
1740494004344,9.846154,-5.7383027,-6.2632318
1740494004350,9.466674,-5.7179523,-5.357026
1740494004357,9.308058,-5.448006,-4.317344
1740494004367,9.296086,-5.1642933,-3.3530796
1740494004368,9.237429,-5.0625396,-1.5682021
1740494004379,9.157822,-5.4025164,-0.39564183
1740494004379,9.033921,-5.952584,0.76195467
1740494004380,8.942942,-6.3542113,1.3054385
1740494004383,8.646061,-6.9168487,1.6825253
1740494004389,7.502231,-7.5082164,2.0470424
1740494004393,6.4445925,-7.904457,2.1080947
1740494004398,5.843648,-8.531139,2.0751743
1740494004403,5.571307,-8.696339,1.7567455
1740494004408,4.8662148,-8.469488,1.6106992
1740494004413,3.9737763,-8.2593975,1.7082629
1740494004418,3.0867245,-8.019379,1.6915035
1740494004421,2.473809,-7.61416,1.496376
1740494004428,2.3373394,-7.2179193,1.3551182
1740494004433,2.6647465,-7.1221514,1.0726024
1740494004438,3.2010477,-7.007828,0.81283146
1740494004445,3.8654387,-7.055114,0.6961141
1740494004448,4.554969,-7.273585,0.58657944
1740494004459,5.2319293,-7.5704656,0.5410896
1740494004461,6.005256,-8.149264,0.6901286
1740494004463,6.801927,-8.616134,0.80924016
1740494004469,7.703344,-8.576629,1.4939818
1740494004474,8.5473,-7.9906483,2.0189106
1740494004480,9.053674,-7.2101383,2.1894975
1740494004482,9.106945,-6.801927,2.3439236
1740494004488,8.949526,-6.6056023,2.0374656
1740494004492,8.826823,-6.6247563,1.8070238
1740494004499,8.871116,-6.7570357,1.8142064
1740494004502,8.9602995,-6.937798,2.1170728
1740494004507,8.842385,-7.0365586,2.2481554
1740494004513,8.531139,-7.2843585,2.1086931
1740494004519,8.189965,-7.138911,1.9967642
1740494004522,7.9673047,-7.0742674,1.7723078
1740494004528,7.7667904,-7.004237,1.5239093
1740494004533,7.338228,-7.2047515,1.2886791
1740494004538,6.8988924,-7.4004774,1.0737995
1740494004541,6.469133,-7.86615,0.80924016
1740494004548,6.727707,-8.783129,1.0779893
1740494004553,6.609194,-9.149442,0.43873745
1740494004558,6.341642,-9.197326,0.34117374
1740494004563,6.1596823,-9.066842,0.82001406
1740494004567,6.103419,-8.616134,1.0869676
1740494004575,6.202778,-8.163031,1.0755951
1740494004576,6.2351,-7.817667,0.87208796
1740494004582,6.137536,-7.5800424,0.8972271
1740494004589,5.4551888,-7.593809,0.78410107
1740494004591,4.947019,-7.7183075,0.8595184
1740494004598,4.8386817,-8.039729,0.80564886
1740494004600,4.8739963,-8.622718,0.7032967
1740494004609,4.981735,-9.164406,0.8206126
1740494004611,5.1481323,-9.433155,0.90141696
1740494004618,5.4911017,-9.657611,0.98341835
1740494004622,5.917868,-9.907805,1.1552023
1740494004626,6.3949127,-10.172364,1.435324
1740494004633,7.2029557,-10.125677,2.0763714
1740494004637,7.884106,-10.390836,2.794632
1740494004641,8.444349,-10.824186,3.1830912
1740494004646,8.843582,-11.126453,3.728969
1740494004652,9.112331,-11.2371855,4.2610803
1740494004658,9.329007,-11.077971,4.8398786
1740494004660,9.457695,-10.740389,5.317522
1740494004665,9.389461,-10.371682,5.590461
1740494004672,9.301474,-10.206482,5.73112
1740494004676,9.281721,-10.402806,5.6066217
1740494004683,9.252393,-10.787076,5.0906715
1740494004685,9.088988,-11.188105,4.084508
1740494004692,8.866926,-11.456854,2.9370868
1740494004695,8.711303,-11.546038,1.5520413
1740494004700,8.637681,-11.4837885,0.10175357
1740494004706,8.59279,-10.997766,0.4914099
1740494004710,8.471883,-10.547057,2.7156234
1740494004716,8.786121,-11.052234,-0.9708488
1740494004720,8.74961,-10.724228,-0.38187516
1740494004726,8.683769,-10.346542,-0.4261679
1740494004731,8.483853,-9.883265,0.22984336
1740494004736,8.175002,-9.419987,0.59615624
1740494004740,7.85358,-8.999206,0.88286185
1740494004745,7.5926123,-8.744224,1.0552444
1740494004751,7.442376,-8.661623,1.0313023
1740494004755,7.2927384,-8.642469,1.0546459
1740494004759,7.113772,-8.553286,1.049259
1740494004766,5.1984105,-6.307524,0.8475474
1740494004769,4.560954,-5.0583496,-1.2599486
1740494004776,4.355053,-3.9516299,0.6596026
1740494004779,6.1608796,-4.9996915,1.0606314
1740494004786,8.1720085,-8.494029,1.1474211
1740494004789,8.783728,-10.500969,1.7848774
1740494004796,8.738836,-11.206061,1.7531542
1740494004799,8.432977,-11.15279,1.0809821
1740494004807,8.053496,-10.33098,0.7170634
1740494004807,7.603985,-9.329007,0.4405331
1740494004816,6.9725137,-8.508394,0.4902128
1740494004818,6.4404025,-7.9307933,0.56682724
1740494004825,5.8622026,-7.319673,0.5931635
1740494004829,5.1523223,-6.703166,1.073201
1740494004836,4.621408,-6.279991,1.1540052
1740494004839,4.2538977,-5.9585695,1.3982137
1740494004846,4.274847,-5.774216,1.4682442
1740494004849,4.6363716,-5.357625,1.5382746
1740494004855,4.879383,-5.5820813,1.6095021
1740494004870,5.117606,-5.9609637,1.9572599
1740494004873,5.246893,-6.4416,2.9269116
1740494004879,5.241506,-6.8851256,3.0693667
1740494004880,5.315128,-7.1568675,2.2272062
1740494004881,5.5671177,-7.427412,1.6729485
1740494004884,5.8149176,-7.8966756,2.147599
1740494004888,5.9023056,-8.0924015,2.0901382
1740494004892,5.9651537,-8.264784,0.89902276
1740494004898,6.0902505,-7.9391727,-0.15083471
1740494004903,6.089652,-7.5704656,-1.3162124
1740494004908,5.935226,-7.1688385,-1.9009962
1740494004912,5.7263317,-6.6959834,-1.9393034
1740494004917,5.5587378,-6.3739634,-1.501763
1740494004922,5.3474493,-5.969942,-0.86490536
1740494004927,5.0200424,-5.547964,0.3298013
1740494004932,4.6058455,-5.3564277,1.5532384
1740494004937,4.087501,-5.0254292,1.8800468
1740494004942,3.6230257,-4.490924,1.6340426
1740494004947,3.6367924,-3.90614,1.4903905
1740494004952,4.0641575,-3.809175,1.3940239
1740494004959,4.3221326,-4.1826706,0.80325466
1740494004961,4.292804,-4.4645877,0.42676646
1740494004967,2.621651,-5.483919,-0.20350714
1740494004973,-3.3560722,-5.5910597,-0.2813187
1740494004977,-4.482544,-5.561132,-0.16280572
1740494004982,-1.8022354,-5.0140567,0.5141548
1740494004987,1.1707647,-5.7125654,0.90381116
1740494004999,2.56419,-6.6588736,1.1923125
1740494005001,2.5821466,-7.4226236,0.7380127
1740494005002,2.6803088,-7.7063365,-0.623091
1740494005006,3.2273839,-7.6967597,-1.4466964
1740494005011,3.7666779,-7.6506715,-1.0911574
1740494005016,4.0665517,-7.728483,-0.51116204
1740494005021,4.4753613,-7.903858,-0.21188685
1740494005027,5.0224366,-8.137892,0.2681506
1740494005032,5.221754,-8.217499,0.79487497
1740494005036,5.2002063,-8.55149,1.2060791
1740494005041,5.2768207,-8.804078,1.3060371
1740494005044,5.4803276,-8.919,1.2862848
1740494005050,5.866991,-9.172187,1.4706384
1740494005054,6.2327056,-9.725247,1.6561891
1740494005059,6.4727244,-10.341754,1.7908629
1740494005065,6.510433,-11.023503,1.5717934
1740494005070,6.5020533,-11.255142,1.2797008
1740494005075,6.375759,-11.350311,1.2150574
1740494005080,6.218939,-11.501745,1.1468226
1740494005085,6.003461,-12.264298,1.1773487
1740494005090,5.9160724,-13.424289,1.1474211
1740494005094,5.7604494,-14.211981,1.1617863
1740494005100,5.4234653,-14.272435,1.3335704
1740494005105,5.085284,-14.264055,1.6831238
1740494005110,4.883573,-14.106038,2.0135236
1740494005115,4.337096,-13.719375,2.005144
1740494005121,3.50152,-13.133992,2.0332758
1740494005125,2.5390508,-11.496957,3.4751837
1740494005131,2.4229321,-12.9005575,0.76195467
1740494005135,2.6761189,-14.100651,-0.04309563
1740494005141,2.224812,-14.05157,0.27234045
1740494005144,1.4263457,-13.175292,1.0474633
1740494005151,1.5077485,-12.404359,1.7160441
1740494005155,2.059612,-12.278065,1.9865888
1740494005159,2.4169466,-11.053431,2.0021513
1740494005165,2.8532898,-11.837532,0.9415198
1740494005171,3.2543187,-11.981782,0.3309984
1740494005175,3.5021186,-11.495161,0.6703765
1740494005179,3.9079356,-10.956466,1.6059108
1740494005184,4.1276035,-10.461464,2.9999347
1740494005191,3.9306808,-10.746973,2.8604724
1740494005194,4.003105,-11.060614,2.771887
1740494005200,4.0019083,-10.857705,2.0967221
1740494005206,3.4500446,-9.630676,1.7340006
1740494005210,2.5270798,-9.985617,1.4670471
1740494005214,3.0388405,-10.437522,1.6112977
1740494005221,3.4542346,-10.237008,1.5239093
1740494005223,3.8576574,-9.75697,0.5506664
1740494005229,3.787627,-8.996812,0.5363012
1740494005235,4.107253,-9.000402,0.19033903
1740494005239,3.3925838,-8.532935,-0.16280572
1740494005244,2.9628246,-8.778939,-0.0664391
1740494005249,3.0148985,-9.23264,-3.2441432
1740494005255,2.0817583,-8.389881,0.1316811
1740494005259,1.9099745,-8.809465,-0.30945057
1740494005265,2.3517046,-10.214263,-0.6398504
1740494005269,2.7952304,-11.270704,-0.8936358
1740494005276,3.1663318,-11.522096,-2.3199813
1740494005277,1.7986441,-8.880095,-0.86729956
1740494005283,1.5759833,-8.412027,-0.8690952
1740494005289,1.4688427,-8.942942,-0.27712885
1740494005294,0.9516952,-9.1033535,0.17417817
1740494005299,-0.6362591,-7.6003933,5.0122614
1740494005303,-0.748188,-8.752603,0.88286185
1740494005312,-2.6132712,-7.177218,1.3826514
1740494005313,-2.087744,-6.736685,-0.37469256
1740494005319,-1.0953473,-7.4202294,-2.497751
1740494005324,-0.4405331,-8.037335,-3.3446999
1740494005328,-1.5729905,-7.518392,0.17477672
1740494005334,-2.9149406,-7.36636,4.176685
1740494005338,-3.2010477,-7.2245035,5.29358
1740494005343,-3.5757403,-7.709928,5.9172697
1740494005347,-2.2397757,-11.414356,-5.819706
1740494005354,-1.4251486,-10.33098,-7.5531077
1740494005358,-0.21428105,-6.5804634,9.394848
1740494005364,0.008978256,-7.132327,0.51235914
1740494005367,1.7806876,-8.671799,-5.205593
1740494005380,4.348469,-8.895657,-6.717531
1740494005381,6.393117,-8.727464,-6.3512187
1740494005384,8.620922,-8.019978,-5.626374
1740494005387,10.68652,-7.695563,-4.3329067
1740494005395,12.046426,-7.809886,-2.5713725
1740494005396,12.410943,-7.8930845,-1.1587936
1740494005402,12.37922,-7.875128,0.23523031
1740494005409,10.952275,-7.221511,1.8632874
1740494005410,8.3150625,-6.789956,4.083311
1740494005417,6.9677253,-7.309498,7.243657
1740494005423,7.967903,-8.671799,9.43076
1740494005428,8.418612,-9.121908,9.618107
1740494005432,7.61416,-8.945934,10.110115
1740494005438,6.3488245,-8.955511,10.781689
1740494005442,5.531803,-8.963293,11.405977
1740494005447,5.5288105,-8.457518,11.756727
1740494005453,6.199785,-7.839813,11.791444
1740494005460,7.2664022,-7.5531077,10.786477
1740494005460,8.883685,-7.086837,9.211093
1740494005468,11.337144,-6.411672,7.111976
1740494005472,14.43105,-5.722142,4.060566
1740494005485,17.633295,-4.894945,0.7918822
1740494005486,19.612701,-4.0904937,-1.7615339
1740494005487,19.612701,-3.6804867,-3.8019924
1740494005489,19.612701,-3.513491,-5.400122
1740494005497,19.612701,-3.2770636,-6.476914
1740494005500,19.612701,-3.0412347,-6.537368
1740494005506,19.612701,-2.7647045,-5.6778493
1740494005512,19.612701,-2.6821043,-4.345476
1740494005515,19.612701,-3.0053217,-2.8287494
1740494005521,19.358917,-3.804985,-1.0534488
1740494005526,18.107946,-4.823718,1.198298
1740494005530,16.633118,-5.6359506,3.9791632
1740494005536,14.903307,-6.054936,7.0545154
1740494005541,13.174095,-6.22672,9.892841
1740494005545,11.935694,-6.3751607,12.340314
1740494005551,11.287464,-6.4152637,14.05157
1740494005555,10.954071,-6.25964,14.969148
1740494005561,11.026496,-6.001665,15.08347
1740494005565,11.532271,-5.8867435,14.604032
1740494005571,12.209231,-5.8544216,13.946823
1740494005576,12.644977,-5.828684,13.106459
1740494005579,12.707824,-5.915474,12.106281
1740494005586,12.620436,-6.181829,11.03727
1740494005590,12.252926,-6.712743,10.043676
1740494005595,11.391013,-7.402273,9.260772
1740494005599,10.171766,-7.9726915,8.96449
1740494005605,8.828619,-8.463503,9.060856
1740494005612,7.548918,-8.792706,9.266159
1740494005614,6.479308,-8.959103,9.618107
1740494005620,5.6185927,-9.14585,9.991004
1740494005626,4.7884035,-9.342773,10.5207205
1740494005628,3.8911762,-9.466075,10.818799
1740494005635,3.1914709,-9.69113,10.988189
1740494005639,2.6683378,-10.072407,11.11568
1740494005645,2.2337902,-10.185533,10.943297
1740494005648,1.9081788,-10.313622,10.521918
1740494005654,1.8100165,-10.451887,9.780912
1740494005661,1.7860745,-10.524911,8.868722
1740494005664,1.6525977,-10.441113,7.9505453
1740494005670,1.4532804,-10.116699,7.181408
1740494005674,1.3545196,-9.724648,6.607398
1740494005679,1.2252327,-9.293693,6.4128695
1740494005687,0.7823054,-8.703522,6.543353
1740494005689,0.7200562,-8.430583,6.853402
1740494005694,0.7290344,-8.2833395,7.0012445
1740494005698,0.5590461,-8.028955,7.029376
1740494005705,0.08020575,-7.776367,7.2107368
1740494005709,-0.5859809,-7.5441294,7.3466077
1740494005714,-1.2132617,-7.349002,7.3460093
1740494005719,-1.54845,-7.1472907,7.44896
1740494005724,-1.5999253,-6.975507,7.465719
1740494005728,-1.472434,-6.7869635,7.447763
1740494005733,-1.1839328,-6.55293,7.2634096
1740494005739,-0.6266823,-6.3889275,6.7773867
1740494005744,0.12868834,-6.271611,6.123171
1740494005747,1.0013748,-6.059126,5.412093
1740494005754,1.9698294,-5.715558,4.887164
1740494005759,2.837129,-5.2780175,4.561553
1740494005764,3.70802,-5.031415,4.518457
1740494005769,4.51726,-4.6519337,4.6662993
1740494005774,5.096657,-4.256891,4.89315
1740494005779,5.213374,-3.989937,5.121796
1740494005783,5.230732,-3.994127,5.7323174
1740494005789,5.342661,-3.762488,6.4445925
1740494005793,5.480926,-3.2345665,7.385514
1740494005797,5.2127757,-3.0615854,8.039131
1740494005807,4.4765587,-3.1591492,8.381501
1740494005808,3.6864722,-3.1950622,8.507197
1740494005813,3.1878796,-3.1232362,8.509591
1740494005818,2.9801826,-3.091513,8.432977
1740494005824,2.9173348,-3.2453403,8.298902
1740494005828,2.983774,-3.3979707,7.9451585
1740494005832,3.1663318,-3.3632548,7.5962033
1740494005838,3.3482912,-3.09271,7.265205
1740494005843,3.4560301,-2.7269957,6.969521
1740494005846,3.570952,-2.420538,6.84203
1740494005853,3.4632127,-2.2786815,6.8043213
1740494005857,3.5835214,-2.1745336,6.9784994
1740494005865,3.819949,-1.9758149,7.076063
1740494005866,4.048595,-1.5514427,7.327454
1740494005877,4.1581297,-1.1713632,7.52737
1740494005881,4.238934,-0.95468795,7.6387005
1740494005883,4.281431,-0.8690952,7.721899
1740494005887,4.2024226,-0.7966706,7.8446016
1740494005895,3.9402575,-0.7302315,7.9930425
1740494005896,3.539827,-0.60812724,8.237849
1740494005901,3.1669302,-0.52133745,8.355764
1740494005904,2.9125464,-0.58119243,8.516774
1740494005911,2.618658,-0.7254431,8.673594
1740494005915,2.2451627,-0.78050977,8.817246
1740494005920,1.8722657,-0.87208796,8.789713
1740494005925,1.602918,-0.9816227,8.631097
1740494005929,1.5340848,-1.0253168,8.698733
1740494005934,1.4891934,-1.0366893,8.901642
1740494005941,1.4856021,-0.90021986,9.003994
1740494005946,1.5107412,-0.7505822,8.896255
1740494005951,1.5221137,-0.7146692,8.600571
1740494005956,1.6106992,-0.7230489,8.189965
1740494005963,1.7423803,-0.4914099,7.567473
1740494005965,1.4927847,0.5434838,5.535993
1740494005971,1.6047137,0.9959879,4.1641154
1740494005977,1.9841946,1.1043255,2.9358897
1740494005982,2.2774844,1.0911574,2.019509
1740494005984,2.3750482,0.88166475,1.5179238
1740494005991,2.3600843,0.65242,1.3730747
1740494005995,2.468422,0.521936,1.4371196
1740494006001,2.6282349,0.47764325,1.5382746
1740494006004,2.7252002,0.31124622,1.7735049
1740494006010,2.7503393,0.091578215,2.1440077
1740494006015,2.7407625,-0.1448492,2.5767596
1740494006022,2.7407625,-0.1448492,2.5767596
1740494006024,2.9747956,-0.17597382,6.256049
1740494006031,3.9695864,0.31064767,14.790779
1740494006034,7.4202294,-0.92535895,19.612701
1740494006041,10.052654,-2.7192147,19.325397
1740494006043,8.383297,-1.690905,16.459538
1740494006049,6.7851677,0.6428431,15.2809925
1740494006054,6.0651116,2.154183,15.929222
1740494006061,5.403713,3.3423057,17.04971
1740494006064,4.4861355,4.6261964,17.043724
1740494006071,3.3608606,5.407903,15.55034
1740494006074,2.3235726,5.8909335,13.523049
1740494006081,1.4544775,6.3619924,11.654974
1740494006083,0.75836337,6.8683662,10.256162
1740494006090,0.25677812,7.2514386,9.173384
1740494006094,-0.34715924,7.225102,8.653243
1740494006102,0.089782566,5.817312,8.239047
1740494006104,0.30645782,5.403115,7.9768815
1740494006109,-0.08559271,5.9400144,7.65546
1740494006115,-0.28909984,5.8651958,7.277176
1740494006118,-0.08559271,5.2037973,7.3442135
1740494006125,0.3705027,4.3676224,7.7967176
1740494006129,1.1240777,3.6523547,8.400057
1740494006133,2.0165164,3.3865983,8.8645315
1740494006139,2.6509798,3.515885,8.930372
1740494006144,3.0735564,3.8127663,8.637083
1740494006150,3.2142158,4.131195,8.385093
1740494006152,3.2728736,4.2754455,8.482059
1740494006160,3.3321302,4.365228,8.67539
1740494006163,3.2016463,4.410718,8.834005
1740494006168,3.040636,4.313753,8.974665
1740494006174,2.7341783,4.180875,9.285912
1740494006179,2.195483,4.1132383,9.745598
1740494006184,1.7118542,3.8414967,10.097546
1740494006187,1.4281414,3.4835634,10.192117
1740494006194,1.0426749,3.544017,9.874885
1740494006200,0.88944596,4.079121,9.721656
1740494006202,0.80804306,4.748899,9.576208
1740494006209,0.7326257,5.395334,9.522339
1740494006213,0.6727707,5.865794,9.378687
1740494006218,0.6973112,5.957372,9.256582
1740494006224,0.919972,5.6347537,8.975264
1740494006227,1.412579,5.155315,8.62152
1740494006234,1.9997569,4.857237,8.37372
1740494006236,2.457648,4.7578773,8.272566
1740494006245,2.7982233,4.64535,8.272566
1740494006246,2.8640637,4.667496,8.421604
1740494006254,2.9370868,4.6016555,8.615535
1740494006257,2.8604724,4.570531,8.814852
1740494006264,2.669535,4.560954,9.057863
1740494006266,2.6192567,4.455011,9.215881
1740494006272,2.5288756,4.4286747,9.36911
1740494006279,2.496554,4.3837833,9.545682
1740494006282,2.4109612,4.417302,9.643246
1740494006287,2.2260091,4.453215,9.688736
1740494006293,1.6609775,4.4663835,9.432556
1740494006298,1.9452889,4.5561657,9.589975
1740494006300,1.9057846,4.534618,9.549872
1740494006309,1.3257892,4.6782703,9.606734
1740494006311,1.1976994,4.574721,9.81503
1740494006317,1.186327,4.2173862,10.095152
1740494006321,1.0169371,3.9863458,10.178948
1740494006328,0.8295909,3.8546648,9.969456
1740494006331,0.64823014,3.8971617,9.741408
1740494006337,0.46926352,4.0222588,9.646238
1740494006342,0.3681085,4.1335893,9.671976
1740494006346,0.39324763,4.226963,9.721058
1740494006353,0.51954174,4.2359414,9.627684
1740494006355,0.6398504,4.174889,9.539697
1740494006361,0.6278794,4.079121,9.527127
1740494006366,0.6392518,3.976769,9.543886
1740494006376,0.6787562,3.9815574,9.695918
1740494006380,0.65062433,3.912724,9.828198
1740494006380,0.63206923,4.020463,9.975441
1740494006395,0.61052144,4.1335893,10.062231
1740494006396,0.58418524,4.255095,9.913791
1740494006396,0.5650316,4.3634324,9.948506
1740494006401,0.36032736,4.4478283,9.610326
1740494006409,0.21547815,4.395156,8.057087
1740494006409,-0.17238252,4.2221746,7.1808095
1740494006415,-0.943914,4.184466,7.6608467
1740494006420,-1.1845313,4.325125,8.075044
1740494006424,-0.705691,4.5154643,8.279748
1740494006429,-0.051475335,4.4981065,8.996812
1740494006436,0.3453636,4.407127,9.793482
1740494006439,0.38307226,4.347272,10.189722
1740494006444,-0.0796072,4.4520183,10.1699705
1740494006448,-0.38367084,4.6399627,9.999982
1740494006454,-0.4417302,4.731541,9.776124
1740494006458,-0.38845924,4.6722846,9.545682
1740494006463,-0.6147113,4.519056,9.196129
1740494006468,-0.59974754,4.369418,9.062054
