1740493962324,-0.007456851,-0.13848437,0.041545313
1740493962329,-0.007456851,-0.12996227,0.033023197
1740493962334,-0.007456851,-0.11930962,0.025566347
1740493962339,-0.0031957934,-0.1107875,0.023435818
1740493962344,0.002130529,-0.10546118,0.023435818
1740493962348,0.011717909,-0.101200126,0.026631612
1740493962354,0.023435818,-0.096939065,0.03195793
1740493962358,0.03834952,-0.0958738,0.035153728
1740493962364,0.05539375,-0.09161274,0.039414786
1740493962368,0.06924219,-0.083090626,0.040480047
1740493962373,0.07882957,-0.07669904,0.04261058
1740493962379,0.07989483,-0.07456851,0.046871636
1740493962384,0.07563378,-0.07882957,0.05219796
1740493962389,0.066046394,-0.08522116,0.056459017
1740493962393,0.05219796,-0.094808534,0.05965481
1740493962398,0.036218993,-0.10333065,0.05539375
1740493962403,0.018109497,-0.10972224,0.0479369
1740493962408,0.0031957934,-0.111852765,0.03834952
1740493962413,-0.011717909,-0.10652645,0.026631612
1740493962418,-0.020240024,-0.10333065,0.017044231
1740493962423,-0.024501082,-0.099069595,0.007456851
1740493962428,-0.026631612,-0.09267801,-0.002130529
1740493962433,-0.034088463,-0.09374327,-0.007456851
1740493962438,-0.04474111,-0.101200126,-0.007456851
1740493962443,-0.046871636,-0.10333065,0.0010652645
1740493962448,-0.04580637,-0.094808534,0.015978966
1740493962452,-0.041545313,-0.083090626,0.029827405
1740493962458,-0.040480047,-0.080960095,0.039414786
1740493962463,-0.04580637,-0.09161274,0.041545313
1740493962468,-0.049002163,-0.10546118,0.039414786
1740493962472,-0.054328486,-0.11504856,0.034088463
1740493962477,-0.0628506,-0.12463594,0.027696876
1740493962483,-0.07350325,-0.13209279,0.024501082
1740493962487,-0.082025364,-0.14594123,0.01917476
1740493962492,-0.09267801,-0.16192019,0.008522116
1740493962497,-0.101200126,-0.17470337,-0.004261058
1740493962502,-0.10333065,-0.18429075,-0.013848438
1740493962507,-0.0958738,-0.1949434,-0.018109497
1740493962512,-0.07989483,-0.19920446,-0.022370555
1740493962517,-0.056459017,-0.1917476,-0.02876214
1740493962522,-0.02876214,-0.17044231,-0.036218993
1740493962527,-0.0031957934,-0.15339808,-0.04261058
1740493962531,0.020240024,-0.15339808,-0.041545313
1740493962536,0.04261058,-0.1257012,-0.036218993
1740493962542,0.06498113,-0.08522116,-0.034088463
1740493962550,0.07989483,-0.04474111,-0.034088463
1740493962552,0.084155895,-0.0127831735,-0.03195793
1740493962557,0.07882957,-0.0053263223,-0.02130529
1740493962562,0.066046394,-0.011717909,-0.0031957934
1740493962566,0.0479369,-0.018109497,0.018109497
1740493962571,0.027696876,-0.037284255,0.034088463
1740493962576,0.011717909,-0.05965481,0.039414786
1740493962581,-0.002130529,-0.08628642,0.035153728
1740493962586,-0.013848438,-0.11824436,0.02130529
1740493962591,-0.01917476,-0.14913702,0.0
1740493962596,-0.026631612,-0.1736381,-0.027696876
1740493962603,-0.037284255,-0.19387813,-0.05752428
1740493962607,-0.056459017,-0.20453078,-0.08735169
1740493962611,-0.082025364,-0.21092236,-0.11611383
1740493962616,-0.11717909,-0.20985709,-0.14168017
1740493962621,-0.15020229,-0.20026971,-0.165116
1740493962626,-0.18216023,-0.18322548,-0.18642128
1740493962630,-0.2130529,-0.15659387,-0.20772657
1740493962635,-0.2396845,-0.1257012,-0.22583607
1740493962641,-0.26525086,-0.096939065,-0.23648871
1740493962650,-0.28975195,-0.080960095,-0.2428803
1740493962651,-0.3121225,-0.07137272,-0.2428803
1740493962659,-0.33129725,-0.066046394,-0.23861924
1740493962660,-0.34514567,-0.05752428,-0.22583607
1740493962665,-0.3568636,-0.04580637,-0.20985709
1740493962670,-0.36645097,-0.033023197,-0.18429075
1740493962675,-0.37390783,-0.036218993,-0.15233281
1740493962680,-0.38242993,-0.05219796,-0.12250541
1740493962685,-0.39414784,-0.07350325,-0.09267801
1740493962691,-0.40266997,-0.084155895,-0.07137272
1740493962695,-0.41225734,-0.08948222,-0.05965481
1740493962700,-0.4261058,-0.08948222,-0.05752428
1740493962704,-0.43782368,-0.09267801,-0.066046394
1740493962709,-0.46232477,-0.10333065,-0.083090626
1740493962714,-0.4910869,-0.09374327,-0.10759171
1740493962720,-0.52411014,-0.05965481,-0.13635385
1740493962725,-0.5592638,-0.08735169,-0.16618125
1740493962730,-0.59228706,-0.1438107,-0.19600865
1740493962735,-0.6135923,-0.1917476,-0.22583607
1740493962740,-0.6125271,-0.21837921,-0.25246766
1740493962745,-0.60080916,-0.21518342,-0.26844665
1740493962749,-0.58056915,-0.19707392,-0.27483824
1740493962754,-0.5613944,-0.18642128,-0.27483824
1740493962759,-0.5475459,-0.1949434,-0.27483824
1740493962764,-0.5422196,-0.20879184,-0.2790993
1740493962769,-0.5400891,-0.21092236,-0.28655612
1740493962775,-0.5432849,-0.1949434,-0.29507825
1740493962779,-0.5422196,-0.16618125,-0.30253512
1740493962784,-0.5390238,-0.12996227,-0.3089267
1740493962795,-0.53263223,-0.10226539,-0.3110572
1740493962795,-0.5305017,-0.09374327,-0.31318775
1740493962799,-0.5294364,-0.098004326,-0.31318775
1740493962804,-0.52837116,-0.10972224,-0.3110572
1740493962809,-0.52411014,-0.12463594,-0.30679616
1740493962814,-0.5230448,-0.13954964,-0.29827404
1740493962819,-0.51984906,-0.15126756,-0.29294774
1740493962823,-0.5187838,-0.16192019,-0.29614353
1740493962828,-0.51452273,-0.1768339,-0.30786142
1740493962834,-0.5123922,-0.18855181,-0.32490566
1740493962839,-0.51452273,-0.18429075,-0.33981937
1740493962844,-0.51984906,-0.17150758,-0.36964676
1740493962848,-0.52837116,-0.1555286,-0.4165184
1740493962853,-0.5368933,-0.13741912,-0.47297743
1740493962858,-0.5475459,-0.10972224,-0.53263223
1740493962863,-0.5581986,-0.07669904,-0.58269966
1740493962868,-0.57098174,-0.05219796,-0.6178534
1740493962873,-0.5795039,-0.04474111,-0.644485
1740493962878,-0.58909124,-0.046871636,-0.6540724
1740493962883,-0.5965481,-0.04580637,-0.6530071
1740493962888,-0.5954828,-0.036218993,-0.6466155
1740493962893,-0.5901565,-0.013848438,-0.6412892
1740493962899,-0.59122175,0.022370555,-0.6423545
1740493962903,-0.59761333,0.07456851,-0.65194184
1740493962908,-0.61572284,0.15339808,-0.67005134
1740493962913,-0.6466155,0.25672874,-0.68389976
1740493962919,-0.6785734,0.36751625,-0.68816084
1740493962923,-0.71159667,0.47510794,-0.6849651
1740493962928,-0.7499462,0.5571333,-0.67963874
1740493962933,-0.7850999,0.6135923,-0.6743124
1740493962938,-0.809601,0.6423545,-0.67537767
1740493962943,-0.8159926,0.6562029,-0.67324716
1740493962948,-0.8000136,0.65513766,-0.6711166
1740493962954,-0.76592517,0.62531024,-0.67537767
1740493962961,-0.72011876,0.5539375,-0.69029135
1740493962964,-0.67218184,0.4495416,-0.71159667
1740493962968,-0.61891866,0.330232,-0.73822826
1740493962973,-0.5603291,0.20026971,-0.7637946
1740493962979,-0.5603291,0.20026971,-0.7637946
1740493962983,-0.5006743,0.068176925,-0.7840346
1740493962988,-0.4463458,-0.06178534,-0.8000136
1740493962993,-0.39947417,-0.18855181,-0.8085357
1740493962998,-0.36005938,-0.3057309,-0.79894835
1740493963003,-0.3334278,-0.406931,-0.7797736
1740493963007,-0.3206446,-0.49428272,-0.75633776
1740493963012,-0.31957933,-0.5613944,-0.73290193
1740493963018,-0.3355583,-0.6040049,-0.7137272
1740493963022,-0.36112466,-0.61572284,-0.6988135
1740493963027,-0.39095205,-0.5858955,-0.68176925
1740493963032,-0.41864893,-0.5219796,-0.66579026
1740493963037,-0.44421527,-0.43036684,-0.6498113
1740493963043,-0.46019423,-0.31957933,-0.63383234
1740493963048,-0.46978164,-0.20026971,-0.6221144
1740493963052,-0.46978164,-0.0777643,-0.6103965
1740493963057,-0.4676511,0.068176925,-0.59761333
1740493963062,-0.46339005,0.21731395,-0.588026
1740493963067,-0.45699844,0.330232,-0.58909124
1740493963071,-0.44315,0.38562572,-0.5944176
1740493963077,-0.41438788,0.40586576,-0.59761333
1740493963081,-0.36751625,0.41758367,-0.5965481
1740493963086,-0.3089267,0.42397526,-0.59122175
1740493963091,-0.2545982,0.39947417,-0.59122175
1740493963096,-0.20879184,0.34301516,-0.6018744
1740493963101,-0.16831179,0.26205507,-0.61891866
1740493963106,-0.128897,0.17896444,-0.63702816
1740493963111,-0.084155895,0.11504856,-0.6487461
1740493963115,-0.037284255,0.06924219,-0.6562029
1740493963120,0.008522116,0.035153728,-0.6562029
1740493963125,0.05539375,0.007456851,-0.65726817
1740493963130,0.10546118,-0.014913702,-0.65726817
1740493963135,0.16192019,-0.039414786,-0.65726817
1740493963140,0.22583607,-0.08522116,-0.660464
1740493963148,0.29827404,-0.1470065,-0.660464
1740493963151,0.3834952,-0.20985709,-0.6625945
1740493963156,0.47617322,-0.26525086,-0.6668556
1740493963160,0.56672066,-0.3057309,-0.6764429
1740493963166,0.6508766,-0.34834146,-0.6988135
1740493963172,0.72970617,-0.38775626,-0.72970617
1740493963176,0.79681784,-0.40906155,-0.7488809
1740493963181,0.83729786,-0.4261058,-0.75420725
1740493963187,0.83942837,-0.4495416,-0.74035877
1740493963191,0.8159926,-0.46871635,-0.69774824
1740493963195,0.773382,-0.47510794,-0.6359629
1740493963201,0.71585774,-0.46552056,-0.5656554
1740493963204,0.6466155,-0.44315,-0.49534798
1740493963210,0.57417756,-0.40586576,-0.4282363
1740493963216,0.5006743,-0.35899413,-0.3685815
1740493963220,0.43675843,-0.31851408,-0.32170987
1740493963226,0.38562572,-0.28655612,-0.28975195
1740493963230,0.3568636,-0.27803403,-0.28122982
1740493963235,0.35153726,-0.3121225,-0.29507825
1740493963241,0.37603834,-0.37923414,-0.32810146
1740493963246,0.41864893,-0.45380265,-0.37710363
1740493963250,0.42290998,-0.47510794,-0.4293016
1740493963254,0.40586576,-0.47297743,-0.48682585
1740493963260,0.44101948,-0.49854377,-0.551807
1740493963265,0.5496765,-0.588026,-0.6114618
1740493963270,0.6849651,-0.7392935,-0.6540724
1740493963275,0.76912093,-0.95128113,-0.664725
1740493963279,0.7637946,-1.1653993,-0.63383234
1740493963284,0.6892261,-1.3102753,-0.567786
1740493963289,0.5571333,-1.3145363,-0.47297743
1740493963295,0.2972088,-1.0066749,-0.3888215
1740493963298,-0.06924219,-0.46019423,-0.35153726
1740493963303,-0.3323625,-0.09161274,-0.3472762
1740493963308,-0.4165184,0.11717909,-0.37816888
1740493963314,-0.42077947,0.29933932,-0.44741106
1740493963318,-0.41758367,0.40586576,-0.52411014
1740493963324,-0.40053943,0.406931,-0.5752428
1740493963329,-0.32810146,0.3291667,-0.59228706
1740493963334,-0.19600865,0.22690132,-0.58483016
1740493963338,-0.03834952,0.13102753,-0.5603291
1740493963344,0.11504856,0.046871636,-0.51665324
1740493963348,0.2428803,-0.022370555,-0.4495416
1740493963354,0.34834146,-0.07563378,-0.36432046
1740493963358,0.42290998,-0.12676647,-0.27483824
1740493963363,0.4676511,-0.17896444,-0.2034655
1740493963368,0.47723848,-0.2247708,-0.15978967
1740493963374,0.45167214,-0.24714136,-0.14061491
1740493963378,0.406931,-0.2428803,-0.13209279
1740493963383,0.36112466,-0.21731395,-0.12250541
1740493963388,0.32597092,-0.18109496,-0.113983296
1740493963394,0.3089267,-0.1438107,-0.10865697
1740493963397,0.3110572,-0.094808534,-0.101200126
1740493963403,0.3387541,-0.03195793,-0.07989483
1740493963412,0.38136467,0.036218993,-0.036218993
1740493963413,0.43675843,0.10333065,0.022370555
1740493963419,0.50387007,0.16192019,0.09161274
1740493963424,0.5784386,0.21518342,0.17150758
1740493963428,0.6583334,0.25033715,0.2514024
1740493963432,0.7488809,0.2609898,0.32597092
1740493963437,0.8426242,0.2428803,0.39734364
1740493963442,0.9406285,0.20133498,0.46019423
1740493963448,1.0386329,0.14274544,0.515588
1740493963454,1.135572,0.06178534,0.5571333
1740493963457,1.2271847,-0.034088463,0.58269966
1740493963462,1.3092101,-0.128897,0.59228706
1740493963468,1.3805827,-0.20772657,0.588026
1740493963473,1.4295849,-0.25885928,0.56459016
1740493963477,1.4594123,-0.27377295,0.5273059
1740493963484,1.4636734,-0.23755397,0.4878911
1740493963486,1.4530207,-0.10972224,0.4644553
1740493963492,1.4199976,0.07456851,0.44315
1740493963497,1.3401027,0.22583607,0.4101268
1740493963501,1.2239889,0.36325517,0.37816888
1740493963506,1.0855045,0.49960902,0.34621096
1740493963512,0.9374327,0.66579026,0.3121225
1740493963517,0.7957525,0.8671253,0.27377295
1740493963521,0.6593987,1.0705907,0.23542345
1740493963527,0.5336975,1.2516857,0.2034655
1740493963531,0.41438788,1.3827133,0.18429075
1740493963536,0.3057309,1.4594123,0.1768339
1740493963541,0.20879184,1.4839134,0.18322548
1740493963546,0.12144015,1.4679344,0.19813919
1740493963551,0.0479369,1.4221281,0.21944448
1740493963556,-0.0127831735,1.3507553,0.24607609
1740493963561,-0.05752428,1.2559468,0.28016454
1740493963566,-0.08522116,1.1302456,0.3121225
1740493963571,-0.10013486,0.9864349,0.33981937
1740493963576,-0.10333065,0.8277105,0.3653857
1740493963580,-0.099069595,0.65726817,0.38029942
1740493963586,-0.084155895,0.48469532,0.3834952
1740493963591,-0.058589544,0.3270362,0.3834952
1740493963596,-0.03089267,0.19281286,0.37923414
1740493963601,0.004261058,0.082025364,0.37390783
1740493963604,0.0479369,0.002130529,0.36112466
1740493963611,0.10333065,-0.05219796,0.34514567
1740493963614,0.16724652,-0.07669904,0.33129725
1740493963619,0.23116238,-0.07456851,0.3153183
1740493963625,0.2790993,-0.058589544,0.29933932
1740493963630,0.3089267,-0.035153728,0.28442562
1740493963635,0.31638354,-0.0053263223,0.27483824
1740493963639,0.30679616,0.027696876,0.2695119
1740493963646,0.2876214,0.06924219,0.2695119
1740493963652,0.26205507,0.12037488,0.27803403
1740493963655,0.22903186,0.16192019,0.31638354
1740493963664,0.18855181,0.18748654,0.3717773
1740493963665,0.14913702,0.18429075,0.42397526
1740493963670,0.10972224,0.15020229,0.46871635
1740493963675,0.060720075,0.18216023,0.49641323
1740493963680,0.011717909,0.23435818,0.5134575
1740493963684,-0.013848438,0.27164245,0.5113269
1740493963689,0.0063915867,0.3057309,0.5113269
1740493963694,0.04474111,0.32277513,0.5400891
1740493963699,0.07137272,0.30146983,0.56459016
1740493963704,0.07669904,0.2545982,0.57417756
1740493963709,0.08841695,0.21518342,0.58269966
1740493963713,0.11824436,0.21411815,0.5997439
1740493963719,0.16618125,0.27377295,0.6359629
1740493963724,0.21624869,0.36964676,0.6849651
1740493963729,0.26418558,0.44421527,0.7318367
1740493963733,0.30146983,0.48682585,0.77125144
1740493963738,0.330232,0.50600064,0.8042747
1740493963744,0.34834146,0.51771855,0.82344943
1740493963748,0.36432046,0.515588,0.82344943
1740493963753,0.38242993,0.5123922,0.809601
1740493963759,0.39840892,0.49428272,0.7840346
1740493963763,0.42184472,0.4708469,0.74781567
1740493963768,0.4346279,0.4495416,0.7030745
1740493963773,0.43995422,0.43356264,0.6487461
1740493963778,0.44421527,0.41864893,0.58483016
1740493963783,0.45167214,0.41225734,0.51984906
1740493963788,0.4676511,0.42184472,0.45060685
1740493963793,0.4878911,0.44208476,0.37603834
1740493963799,0.5209143,0.4612595,0.30040458
1740493963803,0.5656554,0.46871635,0.22370553
1740493963808,0.608266,0.4676511,0.14274544
1740493963813,0.6498113,0.45699844,0.05965481
1740493963817,0.68816084,0.43995422,-0.017044231
1740493963823,0.7073356,0.41225734,-0.09267801
1740493963828,0.70840085,0.36751625,-0.16618125
1740493963833,0.69348717,0.3110572,-0.2247708
1740493963837,0.664725,0.25246766,-0.2609898
1740493963843,0.6135923,0.19707392,-0.2759035
1740493963847,0.5475459,0.1470065,-0.26205507
1740493963852,0.47830373,0.101200126,-0.21944448
1740493963857,0.4016047,0.054328486,-0.15765914
1740493963862,0.31638354,0.0,-0.083090626
1740493963868,0.23222765,-0.058589544,-0.004261058
1740493963872,0.15126756,-0.12357068,0.07350325
1740493963877,0.08628642,-0.18748654,0.14487597
1740493963882,0.036218993,-0.24074976,0.20879184
1740493963887,0.0063915867,-0.27057716,0.2695119
1740493963893,-0.0127831735,-0.30679616,0.3206446
1740493963898,-0.027696876,-0.36005938,0.3568636
1740493963902,-0.04261058,-0.42290998,0.38029942
1740493963907,-0.05006743,-0.47830373,0.40266997
1740493963912,-0.054328486,-0.5134575,0.4250405
1740493963916,-0.054328486,-0.5336975,0.45167214
1740493963922,-0.0479369,-0.5422196,0.47404268
1740493963927,-0.034088463,-0.5294364,0.50387007
1740493963933,-0.022370555,-0.5091964,0.53476274
1740493963936,-0.01917476,-0.5006743,0.55074173
1740493963941,-0.027696876,-0.50600064,0.55074173
1740493963946,-0.03834952,-0.5049353,0.5368933
1740493963951,-0.054328486,-0.49428272,0.5134575
1740493963956,-0.06924219,-0.47723848,0.48149952
1740493963961,-0.08628642,-0.44741106,0.44315
1740493963966,-0.1107875,-0.4016047,0.39627838
1740493963971,-0.14168017,-0.3536678,0.34408042
1740493963976,-0.1768339,-0.30360037,0.28549087
1740493963982,-0.221575,-0.2545982,0.22264028
1740493963987,-0.26738137,-0.20985709,0.16192019
1740493963991,-0.3174488,-0.17789917,0.111852765
1740493963996,-0.37071204,-0.17150758,0.07669904
1740493964001,-0.42290998,-0.18748654,0.056459017
1740493964006,-0.47723848,-0.23222765,0.049002163
1740493964011,-0.52837116,-0.29188246,0.054328486
1740493964015,-0.57417756,-0.35579833,0.066046394
1740493964021,-0.6114618,-0.4261058,0.084155895
1740493964030,-0.6380934,-0.50600064,0.10333065
1740493964031,-0.6583334,-0.58909124,0.12250541
1740493964036,-0.6743124,-0.680704,0.14061491
1740493964040,-0.6870956,-0.77231675,0.1555286
1740493964046,-0.69668293,-0.8522116,0.16724652
1740493964051,-0.7052051,-0.9171927,0.17576863
1740493964055,-0.71798825,-0.96406436,0.17576863
1740493964060,-0.7254451,-0.99069595,0.16724652
1740493964065,-0.72970617,-0.9832391,0.15446335
1740493964070,-0.72970617,-0.94275904,0.13848437
1740493964075,-0.72970617,-0.8788432,0.12676647
1740493964080,-0.7339672,-0.7978831,0.113983296
1740493964085,-0.7318367,-0.69668293,0.10546118
1740493964090,-0.7137272,-0.5837649,0.10333065
1740493964095,-0.6860303,-0.4644553,0.10546118
1740493964100,-0.64555025,-0.34940675,0.10972224
1740493964105,-0.5965481,-0.24714136,0.11717909
1740493964110,-0.531567,-0.16405073,0.12463594
1740493964115,-0.45593318,-0.096939065,0.13209279
1740493964120,-0.37390783,-0.051132694,0.13848437
1740493964126,-0.2876214,-0.029827405,0.13741912
1740493964129,-0.19707392,-0.027696876,0.13528858
1740493964135,-0.10972224,-0.040480047,0.13315806
1740493964139,-0.029827405,-0.060720075,0.13422333
1740493964144,0.046871636,-0.09054748,0.128897
1740493964160,0.11824436,-0.13848437,0.11930962
1740493964161,0.17896444,-0.18961707,0.10226539
1740493964164,0.23222765,-0.24394555,0.07882957
1740493964165,0.2790993,-0.29614353,0.05006743
1740493964194,0.3174488,-0.34408042,0.018109497
1740493964194,0.34834146,-0.37816888,-0.01917476
1740493964194,0.37390783,-0.39627838,-0.060720075
1740493964194,0.39414784,-0.39947417,-0.101200126
1740493964195,0.4079963,-0.38562572,-0.14061491
1740493964195,0.41225734,-0.35579833,-0.17896444
1740493964208,0.41438788,-0.31318775,-0.21092236
1740493964208,0.4048005,-0.2609898,-0.2396845
1740493964208,0.39414784,-0.20559604,-0.2695119
1740493964217,0.3749731,-0.15339808,-0.30466563
1740493964218,0.35153726,-0.10865697,-0.33768883
1740493964254,0.32597092,-0.07456851,-0.3717773
1740493964254,0.30146983,-0.054328486,-0.40266997
1740493964255,0.27483824,-0.041545313,-0.4293016
1740493964255,0.2428803,-0.04474111,-0.45380265
1740493964255,0.21411815,-0.058589544,-0.47404268
1740493964256,0.1768339,-0.08522116,-0.48682585
1740493964256,0.14274544,-0.12357068,-0.49215218
1740493964256,0.1107875,-0.16298546,-0.49428272
1740493964262,0.083090626,-0.2066613,-0.49428272
1740493964267,0.06178534,-0.24820662,-0.49854377
1740493964275,0.04580637,-0.28655612,-0.5006743
1740493964276,0.040480047,-0.31957933,-0.5006743
1740493964282,0.04474111,-0.34301516,-0.49960902
1740493964286,0.058589544,-0.35579833,-0.50600064
1740493964291,0.07882957,-0.36432046,-0.51771855
1740493964296,0.099069595,-0.3717773,-0.53476274
1740493964301,0.12357068,-0.36325517,-0.5454154
1740493964306,0.15233281,-0.32277513,-0.55074173
1740493964311,0.1768339,-0.26525086,-0.5656554
1740493964319,0.19600865,-0.20240025,-0.58696073
1740493964322,0.20985709,-0.13848437,-0.60720074
1740493964326,0.21624869,-0.080960095,-0.62317973
1740493964334,0.21518342,-0.025566347,-0.6359629
1740493964337,0.20240025,0.020240024,-0.6380934
1740493964342,0.18429075,0.06178534,-0.6348976
1740493964346,0.16192019,0.09267801,-0.6327671
1740493964352,0.12996227,0.10546118,-0.6306366
1740493964359,0.098004326,0.099069595,-0.6317018
1740493964360,0.070307456,0.07669904,-0.628506
1740493964365,0.05006743,0.0479369,-0.6221144
1740493964370,0.037284255,0.022370555,-0.6040049
1740493964375,0.026631612,-0.004261058,-0.5784386
1740493964381,0.018109497,-0.033023197,-0.5486112
1740493964386,0.010652645,-0.05965481,-0.51665324
1740493964390,0.0063915867,-0.084155895,-0.48363006
1740493964395,0.0031957934,-0.101200126,-0.45167214
1740493964402,0.004261058,-0.1107875,-0.42184472
1740493964405,0.0053263223,-0.10546118,-0.3930826
1740493964410,0.007456851,-0.09161274,-0.3685815
1740493964419,0.010652645,-0.07882957,-0.350472
1740493964420,0.014913702,-0.066046394,-0.33981937
1740493964425,0.013848438,-0.05539375,-0.33768883
1740493964430,0.014913702,-0.03834952,-0.33662358
1740493964436,0.013848438,-0.01917476,-0.33449304
1740493964440,0.00958738,0.002130529,-0.32810146
1740493964445,0.002130529,0.024501082,-0.32277513
1740493964453,-0.0063915867,0.04261058,-0.314253
1740493964454,-0.02130529,0.06178534,-0.3089267
1740493964460,-0.040480047,0.0777643,-0.30360037
1740493964469,-0.06178534,0.0958738,-0.30360037
1740493964470,-0.08628642,0.10546118,-0.30679616
1740493964475,-0.1107875,0.10865697,-0.3174488
1740493964480,-0.14061491,0.10972224,-0.3323625
1740493964486,-0.16937704,0.10546118,-0.350472
1740493964489,-0.2034655,0.0958738,-0.36751625
1740493964494,-0.23755397,0.08628642,-0.3834952
1740493964506,-0.2695119,0.07882957,-0.39734364
1740493964509,-0.29827404,0.0777643,-0.40586576
1740493964510,-0.330232,0.07669904,-0.4111921
1740493964514,-0.3536678,0.0777643,-0.40906155
1740493964521,-0.37603834,0.080960095,-0.40266997
1740493964524,-0.3930826,0.082025364,-0.3898868
1740493964529,-0.39840892,0.07669904,-0.37603834
1740493964534,-0.39095205,0.070307456,-0.36005938
1740493964538,-0.36964676,0.07456851,-0.34088463
1740493964543,-0.3270362,0.08948222,-0.31851408
1740493964548,-0.2759035,0.113983296,-0.29507825
1740493964554,-0.21944448,0.13315806,-0.2695119
1740493964558,-0.16724652,0.15339808,-0.24074976
1740493964563,-0.12144015,0.17257284,-0.20879184
1740493964570,-0.083090626,0.19068234,-0.1736381
1740493964573,-0.05752428,0.20240025,-0.14061491
1740493964579,-0.043675844,0.20559604,-0.1107875
1740493964586,-0.040480047,0.21092236,-0.08735169
1740493964588,-0.049002163,0.21518342,-0.068176925
1740493964593,-0.06924219,0.21731395,-0.056459017
1740493964598,-0.10652645,0.21624869,-0.054328486
1740493964605,-0.16405073,0.20985709,-0.0628506
1740493964608,-0.24501082,0.19387813,-0.08522116
1740493964613,-0.350472,0.17896444,-0.12357068
1740493964620,-0.46871635,0.16085494,-0.1736381
1740493964622,-0.60507023,0.14594123,-0.22903186
1740493964627,-0.7435546,0.128897,-0.2876214
1740493964635,-0.8745821,0.13209279,-0.33768883
1740493964639,-0.9864349,0.1470065,-0.3834952
1740493964642,-1.0684602,0.18535602,-0.41758367
1740493964647,-1.1227888,0.24927188,-0.44315
1740493964654,-1.1387677,0.33449304,-0.45593318
1740493964674,-1.1110709,0.43995422,-0.45806372
1740493964675,-1.0343717,0.5635249,-0.44528055
1740493964675,-0.9108011,0.700944,-0.41971418
1740493964676,-0.7488809,0.84155893,-0.38242993
1740493964678,-0.5550028,0.9800433,-0.33449304
1740493964682,-0.5550028,0.9800433,-0.33449304
1740493964686,-0.34301516,1.0972224,-0.28122982
1740493964692,-0.12250541,1.1899004,-0.22583607
1740493964697,0.0958738,1.2516857,-0.17257284
1740493964701,0.30146983,1.2761868,-0.12676647
1740493964706,0.44528055,1.1685951,-0.12463594
1740493964711,0.55074173,0.9683254,-0.14594123
1740493964717,0.7030745,0.86499476,-0.12463594
1740493964721,0.84368944,0.9012137,-0.07669904
1740493964726,0.9374327,0.9321064,-0.039414786
1740493964731,0.9832391,0.87351686,-0.008522116
1740493964737,0.9779128,0.76272935,0.013848438
1740493964741,0.9289106,0.6412892,0.01917476
1740493964746,0.86179894,0.5230448,0.01917476
1740493964755,0.793622,0.4101268,0.0127831735
1740493964758,0.7222493,0.29827404,-0.007456851
1740493964787,0.66152924,0.20133498,-0.025566347
1740493964787,0.6178534,0.13848437,-0.02876214
1740493964787,0.58909124,0.111852765,-0.017044231
1740493964788,0.56672066,0.09374327,0.014913702
1740493964788,0.5294364,-0.013848438,0.09161274
1740493964788,0.46232477,-0.1768339,0.1768339
1740493964791,0.3888215,-0.350472,0.23542345
1740493964795,0.330232,-0.46658584,0.27803403
1740493964805,0.3057309,-0.4708469,0.31638354
1740493964805,0.3121225,-0.38242993,0.34621096
1740493964810,0.3334278,-0.24181503,0.36432046
1740493964815,0.3653857,-0.083090626,0.3685815
1740493964820,0.3898868,0.056459017,0.35260254
1740493964825,0.40266997,0.1587244,0.31957933
1740493964830,0.4079963,0.21518342,0.27483824
1740493964835,0.4079963,0.23542345,0.22903186
1740493964839,0.41225734,0.23542345,0.18961707
1740493964844,0.41864893,0.2247708,0.15339808
1740493964849,0.4250405,0.20240025,0.12357068
1740493964855,0.42290998,0.16724652,0.0958738
1740493964859,0.41864893,0.112918034,0.084155895
1740493964865,0.4133226,0.05752428,0.09161274
1740493964870,0.39734364,0.0010652645,0.12037488
1740493964876,0.37710363,-0.043675844,0.16085494
1740493964880,0.3472762,-0.07456851,0.2130529
1740493964884,0.314253,-0.096939065,0.27057716
1740493964890,0.2759035,-0.10972224,0.330232
1740493964895,0.23755397,-0.11717909,0.3898868
1740493964900,0.19813919,-0.11824436,0.43888897
1740493964905,0.14913702,-0.1107875,0.46871635
1740493964910,0.10546118,-0.10333065,0.48469532
1740493964915,0.06924219,-0.08841695,0.49215218
1740493964919,0.046871636,-0.06391586,0.49641323
1740493964925,0.041545313,-0.023435818,0.49747851
1740493964931,0.05539375,0.03195793,0.5006743
1740493964935,0.084155895,0.09054748,0.5091964
1740493964939,0.12783173,0.14168017,0.51665324
1740493964944,0.17896444,0.18322548,0.5251754
1740493964949,0.23648871,0.21411815,0.5368933
1740493964954,0.29507825,0.23116238,0.55074173
1740493964958,0.34408042,0.23435818,0.5656554
1740493964963,0.38242993,0.21837921,0.58269966
1740493964969,0.4101268,0.18748654,0.6018744
1740493964974,0.4314321,0.15020229,0.62531024
1740493964978,0.4314321,0.111852765,0.63915867
1740493964984,0.4165184,0.066046394,0.6402239
1740493964988,0.3898868,0.022370555,0.6380934
1740493964994,0.35260254,-0.011717909,0.6359629
1740493964998,0.30786142,-0.04261058,0.6359629
1740493965003,0.2609898,-0.0777643,0.6412892
1740493965008,0.20559604,-0.111852765,0.6498113
1740493965013,0.15126756,-0.14913702,0.65513766
1740493965018,0.10546118,-0.18855181,0.65194184
1740493965023,0.07137272,-0.21944448,0.6412892
1740493965028,0.053263225,-0.23329292,0.6263755
1740493965033,0.05006743,-0.22796659,0.60933125
1740493965038,0.05965481,-0.20985709,0.59761333
1740493965043,0.07137272,-0.19707392,0.5837649
1740493965051,0.083090626,-0.19920446,0.57417756
1740493965057,0.08948222,-0.20879184,0.567786
1740493965059,0.08841695,-0.22264028,0.5592638
1740493965062,0.08735169,-0.24074976,0.5486112
1740493965067,0.08948222,-0.26312032,0.5400891
1740493965073,0.08735169,-0.28016454,0.531567
1740493965077,0.08628642,-0.29933932,0.51984906
1740493965083,0.08628642,-0.31851408,0.5028048
1740493965087,0.09267801,-0.32384038,0.4889564
1740493965093,0.10013486,-0.32384038,0.47617322
1740493965097,0.10759171,-0.3206446,0.46871635
1740493965102,0.11717909,-0.3153183,0.46019423
1740493965107,0.12996227,-0.30146983,0.4495416
1740493965112,0.14594123,-0.28016454,0.43995422
1740493965117,0.1555286,-0.25885928,0.4314321
1740493965122,0.15765914,-0.2428803,0.42290998
1740493965127,0.15020229,-0.24181503,0.41864893
1740493965132,0.13635385,-0.24820662,0.41864893
1740493965137,0.11930962,-0.25566345,0.42397526
1740493965143,0.10226539,-0.26631612,0.4261058
1740493965147,0.083090626,-0.2790993,0.42290998
1740493965152,0.06178534,-0.29827404,0.41225734
1740493965161,0.039414786,-0.32170987,0.3898868
1740493965162,0.00958738,-0.35579833,0.36325517
1740493965166,-0.024501082,-0.386691,0.3355583
1740493965171,-0.06391586,-0.41864893,0.30679616
1740493965176,-0.11504856,-0.4527374,0.2759035
1740493965181,-0.17576863,-0.4910869,0.2428803
1740493965186,-0.24181503,-0.5273059,0.2130529
1740493965191,-0.3121225,-0.5571333,0.18322548
1740493965197,-0.38242993,-0.58056915,0.15233281
1740493965203,-0.45380265,-0.5997439,0.12463594
1740493965205,-0.51984906,-0.61678815,0.094808534
1740493965213,-0.5795039,-0.6359629,0.06391586
1740493965215,-0.6221144,-0.6466155,0.03089267
1740493965220,-0.6508766,-0.65194184,-0.0063915867
1740493965225,-0.660464,-0.6498113,-0.04580637
1740493965231,-0.6562029,-0.6359629,-0.08628642
1740493965235,-0.63915867,-0.6103965,-0.12676647
1740493965240,-0.6114618,-0.56885123,-0.16192019
1740493965245,-0.5816344,-0.5187838,-0.18748654
1740493965250,-0.5486112,-0.4644553,-0.2066613
1740493965256,-0.515588,-0.4079963,-0.2130529
1740493965262,-0.4825648,-0.350472,-0.20559604
1740493965266,-0.4495416,-0.28975195,-0.18855181
1740493965273,-0.41758367,-0.23861924,-0.16724652
1740493965276,-0.38456047,-0.1949434,-0.14168017
1740493965280,-0.34514567,-0.16085494,-0.11611383
1740493965286,-0.29614353,-0.14168017,-0.09267801
1740493965290,-0.24074976,-0.13528858,-0.07669904
1740493965295,-0.17576863,-0.13422333,-0.06178534
1740493965300,-0.10652645,-0.1470065,-0.05006743
1740493965305,-0.039414786,-0.16618125,-0.04580637
1740493965310,0.025566347,-0.19068234,-0.041545313
1740493965315,0.083090626,-0.22050974,-0.040480047
1740493965320,0.13422333,-0.24394555,-0.040480047
1740493965325,0.18109496,-0.25992453,-0.04261058
1740493965330,0.2247708,-0.2727077,-0.0479369
1740493965334,0.2609898,-0.28975195,-0.058589544
1740493965339,0.29507825,-0.3121225,-0.07669904
1740493965345,0.32277513,-0.33449304,-0.101200126
1740493965349,0.34940675,-0.350472,-0.13315806
1740493965354,0.3717773,-0.36325517,-0.17150758
1740493965359,0.3898868,-0.36964676,-0.21837921
1740493965364,0.40373522,-0.3717773,-0.26738137
1740493965369,0.4111921,-0.36645097,-0.3206446
1740493965374,0.4111921,-0.34194988,-0.37071204
1740493965379,0.40053943,-0.30146983,-0.41438788
1740493965384,0.38562572,-0.2428803,-0.4527374
1740493965389,0.35899413,-0.17789917,-0.48469532
1740493965394,0.3174488,-0.12463594,-0.5113269
1740493965399,0.26525086,-0.09267801,-0.531567
1740493965404,0.20559604,-0.07137272,-0.5475459
1740493965409,0.14168017,-0.05219796,-0.5581986
1740493965414,0.0777643,-0.04261058,-0.5603291
1740493965418,0.017044231,-0.041545313,-0.5592638
1740493965424,-0.046871636,-0.054328486,-0.56672066
1740493965429,-0.10439592,-0.06711166,-0.5699165
1740493965433,-0.14807177,-0.07669904,-0.5603291
1740493965438,-0.18322548,-0.080960095,-0.5432849
1740493965444,-0.20240025,-0.07563378,-0.5209143
1740493965448,-0.21198763,-0.084155895,-0.49534798
1740493965453,-0.22903186,-0.1257012,-0.48363006
1740493965458,-0.2396845,-0.16085494,-0.48363006
1740493965463,-0.23648871,-0.16724652,-0.4910869
1740493965468,-0.21837921,-0.15659387,-0.49534798
1740493965473,-0.19813919,-0.1438107,-0.49747851
1740493965478,-0.18002969,-0.13528858,-0.49854377
1740493965483,-0.16405073,-0.13102753,-0.5028048
1740493965488,-0.15446335,-0.128897,-0.50813115
1740493965494,-0.14594123,-0.11930962,-0.5123922
1740493965498,-0.14274544,-0.10333065,-0.51665324
1740493965503,-0.14168017,-0.084155895,-0.5134575
1740493965508,-0.14487597,-0.070307456,-0.50387007
1740493965512,-0.15339808,-0.060720075,-0.48682585
1740493965517,-0.16085494,-0.053263225,-0.46232477
1740493965522,-0.17257284,-0.05006743,-0.4314321
1740493965527,-0.1768339,-0.049002163,-0.39734364
1740493965532,-0.18216023,-0.05539375,-0.35792887
1740493965537,-0.18535602,-0.06498113,-0.3206446
1740493965543,-0.18216023,-0.08735169,-0.2908172
1740493965547,-0.16724652,-0.113983296,-0.2695119
1740493965552,-0.14168017,-0.14274544,-0.257794
1740493965557,-0.10226539,-0.16085494,-0.25246766
1740493965562,-0.053263225,-0.17257284,-0.25246766
1740493965567,0.008522116,-0.16937704,-0.25246766
1740493965572,0.07137272,-0.15978967,-0.25353295
1740493965577,0.13315806,-0.14807177,-0.25885928
1740493965582,0.18535602,-0.13315806,-0.26738137
1740493965587,0.23329292,-0.11930962,-0.27057716
1740493965591,0.2727077,-0.101200126,-0.2727077
1740493965596,0.30786142,-0.0777643,-0.27696875
1740493965601,0.33449304,-0.05965481,-0.27803403
1740493965607,0.35153726,-0.041545313,-0.2759035
1740493965611,0.35792887,-0.023435818,-0.2727077
1740493965616,0.3536678,-0.007456851,-0.26418558
1740493965621,0.33129725,0.0053263223,-0.24820662
1740493965626,0.29827404,0.017044231,-0.22583607
1740493965631,0.2545982,0.02876214,-0.19920446
1740493965636,0.20453078,0.03834952,-0.16724652
1740493965641,0.14913702,0.040480047,-0.13848437
1740493965646,0.09374327,0.036218993,-0.1107875
1740493965651,0.041545313,0.026631612,-0.08948222
1740493965656,-0.004261058,0.015978966,-0.07243799
1740493965662,-0.04261058,0.0031957934,-0.05965481
1740493965666,-0.07669904,-0.0127831735,-0.05219796
1740493965671,-0.10759171,-0.027696876,-0.051132694
1740493965675,-0.13635385,-0.041545313,-0.05539375
1740493965681,-0.16405073,-0.053263225,-0.0628506
1740493965686,-0.1917476,-0.0628506,-0.07243799
1740493965690,-0.21411815,-0.07137272,-0.080960095
1740493965695,-0.23648871,-0.084155895,-0.08841695
1740493965700,-0.25246766,-0.09267801,-0.09161274
1740493965705,-0.25885928,-0.09374327,-0.08841695
1740493965710,-0.24714136,-0.07350325,-0.083090626
1740493965715,-0.21731395,-0.036218993,-0.07563378
1740493965720,-0.1736381,0.008522116,-0.066046394
1740493965725,-0.113983296,0.068176925,-0.051132694
1740493965730,-0.039414786,0.13315806,-0.03089267
1740493965735,0.043675844,0.2066613,-0.0063915867
1740493965740,0.12357068,0.27164245,0.024501082
1740493965745,0.19707392,0.32597092,0.058589544
1740493965750,0.25566345,0.36645097,0.094808534
1740493965754,0.29507825,0.39734364,0.1257012
1740493965760,0.32170987,0.42077947,0.14487597
1740493965766,0.32170987,0.4346279,0.15126756
1740493965770,0.30360037,0.4346279,0.13954964
1740493965775,0.25672874,0.4165184,0.111852765
1740493965780,0.18535602,0.38456047,0.07243799
1740493965785,0.09267801,0.3355583,0.023435818
1740493965790,-0.02876214,0.27164245,-0.029827405
1740493965795,-0.17470337,0.20133498,-0.083090626
1740493965799,-0.33768883,0.14061491,-0.128897
1740493965806,-0.50600064,0.098004326,-0.16405073
1740493965809,-0.6679208,0.07882957,-0.18216023
1740493965815,-0.81066626,0.08948222,-0.18429075
1740493965819,-0.9257148,0.11930962,-0.17150758
1740493965825,-1.0013486,0.17257284,-0.14487597
1740493965829,-1.0290455,0.2545982,-0.10759171
1740493965834,-1.0056096,0.36112466,-0.05965481
1740493965841,-0.92997587,0.48043427,-0.002130529
1740493965846,-0.81066626,0.5944176,0.0628506
1740493965855,-0.65513766,0.70200926,0.12783173
1740493965856,-0.47404268,0.7978831,0.19068234
1740493965861,-0.27483824,0.87351686,0.2428803
1740493965871,-0.07350325,0.91825795,0.28122982
1740493965873,0.11930962,0.9257148,0.3110572
1740493965873,0.29188246,0.902279,0.33129725
1740493965877,0.43356264,0.8607337,0.35260254
1740493965883,0.5400891,0.80747044,0.37284255
1740493965888,0.6103965,0.75101143,0.3898868
1740493965892,0.644485,0.69348717,0.4016047
1740493965897,0.64341974,0.6348976,0.4101268
1740493965903,0.6114618,0.5763081,0.41438788
1740493965907,0.551807,0.52624065,0.41545314
1740493965912,0.46978164,0.4889564,0.41545314
1740493965917,0.37284255,0.46339005,0.41545314
1740493965922,0.27164245,0.44741106,0.41438788
1740493965927,0.1736381,0.4314321,0.4111921
1740493965932,0.08522116,0.4165184,0.406931
1740493965937,0.011717909,0.39840892,0.4016047
1740493965943,-0.049002163,0.37284255,0.39414784
1740493965947,-0.09054748,0.34514567,0.386691
1740493965952,-0.1107875,0.31851408,0.37710363
1740493965957,-0.1107875,0.294013,0.3653857
1740493965963,-0.09054748,0.2695119,0.34940675
1740493965967,-0.051132694,0.24501082,0.32597092
1740493965972,0.004261058,0.2247708,0.29827404
1740493965977,0.07456851,0.20879184,0.26525086
1740493965982,0.15233281,0.19281286,0.22583607
1740493965986,0.22796659,0.17470337,0.18429075
1740493965991,0.29507825,0.15659387,0.14061491
1740493965996,0.34834146,0.1470065,0.099069595
1740493966001,0.38562572,0.14061491,0.05965481
1740493966006,0.40266997,0.13954964,0.027696876
1740493966011,0.39840892,0.14487597,-0.004261058
1740493966016,0.37710363,0.15978967,-0.02876214
1740493966021,0.3387541,0.18109496,-0.049002163
1740493966026,0.2876214,0.2066613,-0.06178534
1740493966031,0.2247708,0.23222765,-0.066046394
1740493966036,0.15446335,0.25566345,-0.06924219
1740493966044,0.082025364,0.28122982,-0.07243799
1740493966046,0.015978966,0.30999196,-0.0777643
1740493966051,-0.041545313,0.33662358,-0.080960095
1740493966055,-0.084155895,0.36432046,-0.082025364
1740493966060,-0.11504856,0.38456047,-0.07456851
1740493966065,-0.13741912,0.39521313,-0.06178534
1740493966070,-0.14168017,0.39840892,-0.040480047
1740493966075,-0.13528858,0.3920173,-0.013848438
1740493966080,-0.11824436,0.3685815,0.014913702
1740493966085,-0.08841695,0.33981937,0.043675844
1740493966090,-0.05006743,0.30786142,0.07243799
1740493966095,-0.007456851,0.2790993,0.099069595
1740493966100,0.037284255,0.25566345,0.12144015
1740493966105,0.083090626,0.23648871,0.14168017
1740493966110,0.12783173,0.22050974,0.15978967
1740493966115,0.16618125,0.20559604,0.1768339
1740493966120,0.19600865,0.18642128,0.19068234
1740493966125,0.21944448,0.16405073,0.19600865
1740493966130,0.23329292,0.14168017,0.20133498
1740493966135,0.2428803,0.11717909,0.20453078
1740493966140,0.24501082,0.096939065,0.21092236
1740493966145,0.2428803,0.080960095,0.21837921
1740493966150,0.23542345,0.06924219,0.22583607
1740493966155,0.22796659,0.06178534,0.23542345
1740493966160,0.21411815,0.058589544,0.24501082
1740493966170,0.20026971,0.056459017,0.2545982
1740493966171,0.18322548,0.056459017,0.26312032
1740493966179,0.165116,0.054328486,0.27164245
1740493966179,0.14487597,0.05219796,0.28016454
1740493966184,0.12250541,0.046871636,0.28655612
1740493966189,0.0958738,0.039414786,0.29188246
1740493966202,0.07243799,0.03834952,0.29507825
1740493966203,0.05219796,0.04580637,0.29933932
1740493966204,0.034088463,0.05539375,0.30040458
1740493966217,0.014913702,0.06178534,0.30040458
1740493966217,-0.007456851,0.06178534,0.30040458
1740493966231,-0.035153728,0.051132694,0.3057309
1740493966231,-0.06924219,0.036218993,0.3174488
1740493966231,-0.1107875,0.011717909,0.3334278
1740493966233,-0.1587244,-0.01917476,0.35579833
1740493966239,-0.21411815,-0.058589544,0.3834952
1740493966244,-0.27164245,-0.101200126,0.4133226
1740493966286,-0.32384038,-0.13741912,0.44421527
1740493966287,-0.36432046,-0.165116,0.47510794
1740493966288,-0.39095205,-0.18322548,0.50600064
1740493966288,-0.4048005,-0.20133498,0.53795856
1740493966288,-0.40906155,-0.22264028,0.5699165
1740493966288,-0.40373522,-0.24394555,0.60293967
1740493966288,-0.3920173,-0.25672874,0.6380934
1740493966289,-0.37603834,-0.26312032,0.67218184
1740493966289,-0.36218992,-0.26631612,0.7073356
1740493966296,-0.34408042,-0.26738137,0.7435546
1740493966303,-0.32490566,-0.26844665,0.7755125
1740493966303,-0.30466563,-0.27164245,0.8064052
1740493966310,-0.28016454,-0.28122982,0.83729786
1740493966312,-0.25566345,-0.29933932,0.86392945
1740493966318,-0.22903186,-0.32384038,0.8873653
1740493966322,-0.20772657,-0.35153726,0.9044095
1740493966327,-0.19281286,-0.37816888,0.9150622
1740493966332,-0.18961707,-0.4111921,0.9193232
1740493966337,-0.20026971,-0.45060685,0.91612744
1740493966342,-0.22796659,-0.49641323,0.9044095
1740493966347,-0.26312032,-0.5390238,0.88949585
1740493966352,-0.314253,-0.5773733,0.86606
1740493966361,-0.314253,-0.5773733,0.86606
1740493966363,-0.3749731,-0.6146576,0.83516735
1740493966367,-0.4463458,-0.64341974,0.80107886
1740493966373,-0.5251754,-0.6593987,0.76592517
1740493966378,-0.60293967,-0.6668556,0.7307714
1740493966382,-0.6785734,-0.6679208,0.69668293
1740493966387,-0.753142,-0.6679208,0.66579026
1740493966395,-0.82877576,-0.6711166,0.6380934
1740493966397,-0.89801794,-0.67218184,0.6135923
1740493966402,-0.95660746,-0.67324716,0.58696073
1740493966407,-0.99921805,-0.6785734,0.5571333
1740493966413,-1.0205233,-0.6924219,0.5230448
1740493966417,-1.0205233,-0.70627034,0.47830373
1740493966422,-0.99069595,-0.7137272,0.4314321
1740493966428,-0.9395633,-0.7094661,0.37816888
1740493966431,-0.86392945,-0.68389976,0.32277513
1740493966437,-0.76485986,-0.6327671,0.2695119
1740493966444,-0.6466155,-0.56459016,0.221575
1740493966447,-0.515588,-0.47830373,0.18002969
1740493966451,-0.37603834,-0.38029942,0.1470065
1740493966457,-0.23329292,-0.27803403,0.12250541
1740493966464,-0.08948222,-0.18429075,0.10439592
1740493966466,0.040480047,-0.1107875,0.08948222
1740493966471,0.1555286,-0.06498113,0.07882957
1740493966480,0.2514024,-0.043675844,0.068176925
1740493966481,0.32597092,-0.0479369,0.056459017
1740493966490,0.38136467,-0.07563378,0.046871636
1740493966491,0.4165184,-0.11930962,0.036218993
1740493966497,0.43249738,-0.17257284,0.027696876
1740493966501,0.43036684,-0.23009712,0.015978966
1740493966506,0.40906155,-0.28868666,0.0053263223
1740493966513,0.37923414,-0.34301516,-0.010652645
1740493966515,0.3387541,-0.38562572,-0.029827405
1740493966521,0.2972088,-0.4133226,-0.060720075
1740493966528,0.2545982,-0.4282363,-0.099069595
1740493966531,0.21198763,-0.42717105,-0.14594123
1740493966536,0.17470337,-0.41225734,-0.19813919
1740493966540,0.14594123,-0.37816888,-0.257794
1740493966545,0.12463594,-0.32384038,-0.314253
1740493966550,0.112918034,-0.25885928,-0.3717773
1740493966555,0.10972224,-0.18961707,-0.4282363
1740493966560,0.11824436,-0.1257012,-0.47510794
1740493966565,0.13422333,-0.07243799,-0.51771855
1740493966570,0.15765914,-0.03195793,-0.5486112
1740493966575,0.18109496,-0.0063915867,-0.572047
1740493966579,0.20559604,0.0053263223,-0.5858955
1740493966585,0.22903186,0.004261058,-0.58909124
1740493966590,0.25033715,-0.0010652645,-0.58483016
1740493966596,0.27483824,-0.011717909,-0.5752428
1740493966599,0.294013,-0.025566347,-0.56672066
1740493966604,0.314253,-0.041545313,-0.55606806
1740493966613,0.32597092,-0.06498113,-0.54435015
1740493966615,0.33662358,-0.09054748,-0.52837116
1740493966619,0.3387541,-0.12144015,-0.5113269
1740493966624,0.33662358,-0.15126756,-0.49428272
1740493966629,0.3270362,-0.17576863,-0.48149952
1740493966635,0.30999196,-0.1949434,-0.47297743
1740493966639,0.28336033,-0.2066613,-0.46658584
1740493966645,0.25246766,-0.2066613,-0.46232477
1740493966649,0.21731395,-0.20133498,-0.45593318
1740493966655,0.17576863,-0.1949434,-0.45167214
1740493966662,0.13422333,-0.18535602,-0.44847634
1740493966673,0.09267801,-0.17789917,-0.44741106
1740493966674,0.05219796,-0.16724652,-0.44847634
1740493966674,0.017044231,-0.15446335,-0.45167214
1740493966686,-0.0127831735,-0.1438107,-0.4527374
1740493966687,-0.037284255,-0.13315806,-0.45167214
1740493966688,-0.056459017,-0.13102753,-0.4495416
1740493966696,-0.070307456,-0.12676647,-0.4463458
1740493966698,-0.07563378,-0.1257012,-0.44208476
1740493966703,-0.07669904,-0.12144015,-0.43675843
1740493966708,-0.07456851,-0.11611383,-0.4293016
1740493966713,-0.06924219,-0.10972224,-0.41971418
1740493966718,-0.06178534,-0.098004326,-0.4111921
1740493966723,-0.051132694,-0.08948222,-0.40373522
1740493966730,-0.037284255,-0.07989483,-0.39947417
1740493966733,-0.015978966,-0.06924219,-0.39947417
1740493966737,0.00958738,-0.060720075,-0.39840892
1740493966746,0.036218993,-0.05219796,-0.39734364
1740493966747,0.060720075,-0.046871636,-0.39840892
1740493966753,0.08948222,-0.04261058,-0.39627838
1740493966758,0.113983296,-0.036218993,-0.39627838
1740493966764,0.13635385,-0.03089267,-0.39840892
1740493966767,0.1555286,-0.024501082,-0.4016047
1740493966772,0.16831179,-0.020240024,-0.4048005
1740493966779,0.1736381,-0.015978966,-0.40586576
1740493966782,0.17044231,-0.0127831735,-0.4079963
1740493966787,0.16405073,-0.0063915867,-0.4133226
1740493966792,0.15339808,0.0,-0.42290998
1740493966796,0.13741912,0.004261058,-0.4346279
1740493966801,0.11611383,0.00958738,-0.4495416
1740493966807,0.09267801,0.015978966,-0.4644553
1740493966812,0.068176925,0.02876214,-0.47617322
1740493966817,0.043675844,0.049002163,-0.48469532
1740493966822,0.02130529,0.06924219,-0.4878911
1740493966827,0.0053263223,0.08841695,-0.4889564
1740493966832,-0.008522116,0.10439592,-0.4825648
1740493966839,-0.0127831735,0.11824436,-0.47297743
1740493966841,-0.010652645,0.12676647,-0.46019423
1740493966850,-0.0031957934,0.128897,-0.44741106
1740493966852,0.00958738,0.12144015,-0.43675843
1740493966856,0.027696876,0.10546118,-0.42290998
1740493966862,0.05539375,0.08522116,-0.41225734
1740493966866,0.09267801,0.05965481,-0.40586576
1740493966871,0.13315806,0.027696876,-0.40053943
1740493966876,0.17576863,-0.007456851,-0.3930826
1740493966881,0.21092236,-0.03834952,-0.38562572
1740493966886,0.23222765,-0.06391586,-0.37603834
1740493966892,0.2428803,-0.07989483,-0.36432046
1740493966919,0.24074976,-0.0958738,-0.35260254
1740493966920,0.22690132,-0.11717909,-0.34621096
1740493966921,0.20026971,-0.14487597,-0.34194988
1740493966921,0.16192019,-0.16937704,-0.33768883
1740493966922,0.11824436,-0.18109496,-0.33662358
1740493966923,0.068176925,-0.18429075,-0.34408042
1740493966926,0.0063915867,-0.17896444,-0.36005938
1740493966930,-0.066046394,-0.165116,-0.386691
1740493966936,-0.14274544,-0.13635385,-0.41438788
1740493966940,-0.23222765,-0.098004326,-0.44101948
1740493966945,-0.32810146,-0.058589544,-0.46339005
1740493966950,-0.42717105,-0.0053263223,-0.47830373
1740493966955,-0.5209143,0.060720075,-0.47830373
1740493966959,-0.608266,0.13635385,-0.46232477
1740493966964,-0.6870956,0.20026971,-0.43036684
1740493966969,-0.74248934,0.26205507,-0.3834952
1740493966975,-0.7680557,0.3270362,-0.3174488
1740493966979,-0.76059884,0.3898868,-0.24181503
1740493966984,-0.7254451,0.4314321,-0.15765914
1740493966989,-0.66365975,0.44741106,-0.07350325
1740493966994,-0.5795039,0.43995422,0.0053263223
1740493966999,-0.47191215,0.4048005,0.07456851
1740493967004,-0.35153726,0.34408042,0.13209279
1740493967010,-0.22796659,0.26205507,0.18109496
1740493967014,-0.10652645,0.17044231,0.22264028
1740493967019,0.0010652645,0.083090626,0.25033715
1740493967024,0.09374327,0.011717909,0.26631612
1740493967029,0.17257284,-0.03195793,0.27164245
1740493967034,0.23861924,-0.054328486,0.25992453
1740493967039,0.28229508,-0.06391586,0.23009712
1740493967045,0.30466563,-0.06498113,0.18535602
1740493967049,0.30786142,-0.05219796,0.13102753
1740493967054,0.28975195,-0.023435818,0.07669904
1740493967059,0.2514024,0.0127831735,0.022370555
1740493967064,0.18748654,0.060720075,-0.029827405
1740493967069,0.10759171,0.11824436,-0.0777643
1740493967075,0.02130529,0.19600865,-0.12357068
1740493967079,-0.06711166,0.28655612,-0.16298546
1740493967084,-0.1438107,0.38562572,-0.1917476
1740493967089,-0.20026971,0.48469532,-0.20985709
1740493967095,-0.23222765,0.5795039,-0.21518342
1740493967098,-0.2396845,0.664725,-0.21092236
1740493967104,-0.22050974,0.7286409,-0.20026971
1740493967109,-0.17150758,0.7755125,-0.18216023
1740493967114,-0.09374327,0.8064052,-0.1438107
1740493967119,0.020240024,0.8319715,-0.0777643
1740493967124,0.1555286,0.82557994,-0.03089267
1740493967129,0.30466563,0.7819041,-0.008522116
1740493967134,0.46019423,0.7137272,0.004261058
1740493967139,0.6135923,0.6359629,0.018109497
1740493967144,0.7595336,0.5486112,0.041545313
1740493967149,0.89801794,0.44741106,0.06498113
1740493967154,1.0301107,0.33981937,0.08522116
1740493967159,1.1536814,0.23542345,0.10226539
1740493967164,1.2612731,0.1470065,0.11824436
1740493967171,1.3475596,0.084155895,0.13102753
1740493967175,1.4114754,0.041545313,0.14594123
1740493967179,1.4551512,0.04261058,0.14913702
1740493967183,1.4849787,0.14274544,0.098004326
1740493967189,1.5052186,0.257794,0.013848438
1740493967193,1.5052186,0.330232,-0.06391586
1740493967198,1.4881744,0.36325517,-0.10865697
1740493967203,1.4679344,0.3834952,-0.1107875
1740493967208,1.4370418,0.39414784,-0.06711166
1740493967214,1.3923006,0.38775626,0.0127831735
1740493967217,1.3337111,0.3568636,0.12037488
1740493967222,1.2644689,0.3110572,0.2396845
1740493967233,1.1888351,0.24394555,0.3536678
1740493967234,1.1217234,0.15233281,0.44528055
1740493967236,1.0769824,0.04474111,0.51984906
1740493967241,1.0524813,-0.07137272,0.58483016
1740493967247,1.0492855,-0.21837921,0.66579026
1740493967252,1.0428939,-0.3653857,0.7499462
1740493967257,1.0237192,-0.45380265,0.78936094
1740493967262,1.0045444,-0.48363006,0.7850999
1740493967266,0.9917612,-0.46552056,0.75633776
1740493967271,0.9821738,-0.43036684,0.721184
1740493967276,0.96619487,-0.39521313,0.6956177
1740493967281,0.9416938,-0.36218992,0.67963874
1740493967286,0.9086706,-0.33662358,0.6668556
1740493967291,0.87351686,-0.3121225,0.6498113
1740493967297,0.82877576,-0.28122982,0.62317973
1740493967301,0.773382,-0.24501082,0.5997439
1740493967306,0.71159667,-0.17896444,0.56672066
1740493967311,0.6498113,-0.080960095,0.51026165
1740493967316,0.5965481,0.01917476,0.44208476
1740493967321,0.55606806,0.082025364,0.37816888
1740493967326,0.5251754,0.09054748,0.32170987
1740493967331,0.49960902,0.053263225,0.26844665
1740493967336,0.48469532,-0.0127831735,0.22903186
1740493967341,0.48363006,-0.083090626,0.18855181
1740493967347,0.4889564,-0.13741912,0.13741912
1740493967351,0.49641323,-0.17576863,0.08841695
1740493967356,0.49428272,-0.20240025,0.053263225
1740493967361,0.47404268,-0.22264028,0.03834952
1740493967367,0.43036684,-0.21624869,0.051132694
1740493967371,0.36112466,-0.15446335,0.09054748
1740493967376,0.2695119,-0.024501082,0.14913702
1740493967381,0.15339808,0.14274544,0.21411815
1740493967386,0.015978966,0.31638354,0.28336033
1740493967391,-0.13848437,0.479369,0.35473305
1740493967396,-0.3057309,0.62744075,0.42717105
1740493967401,-0.47830373,0.7616641,0.49747851
1740493967406,-0.6498113,0.8969527,0.5656554
1740493967410,-0.8117315,1.0460896,0.6306366
1740493967415,-0.95447695,1.2090752,0.6860303
1740493967420,-1.0727214,1.3443637,0.7318367
1740493967426,-1.1622036,1.4040185,0.76912093
1740493967431,-1.2175972,1.3954965,0.79042625
1740493967438,-1.2282499,1.3369069,0.793622
1740493967440,-1.1877699,1.2580773,0.7765778
1740493967446,-1.1004182,1.1685951,0.74781567
1740493967450,-0.9779128,1.0620687,0.71479243
1740493967455,-0.83729786,0.9353022,0.6892261
1740493967460,-0.6849651,0.80107886,0.68176925
1740493967465,-0.5475459,0.6711166,0.6849651
1740493967470,-0.43569317,0.5763081,0.69135666
1740493967475,-0.3323625,0.52837116,0.69668293
1740493967481,-0.23435818,0.51771855,0.7052051
1740493967485,-0.15126756,0.5028048,0.7190535
1740493967490,-0.083090626,0.46019423,0.737163
1740493967495,-0.029827405,0.40053943,0.753142
1740493967499,0.024501082,0.35579833,0.7552725
1740493967505,0.08948222,0.330232,0.74461985
1740493967510,0.15020229,0.30466563,0.7318367
1740493967515,0.20772657,0.28122982,0.7126619
1740493967525,0.25353295,0.2545982,0.69348717
1740493967526,0.28229508,0.22796659,0.6764429
1740493967530,0.2908172,0.20026971,0.6625945
1740493967535,0.2790993,0.17789917,0.65513766
1740493967540,0.24927188,0.15978967,0.65194184
1740493967546,0.20453078,0.14061491,0.65513766
1740493967549,0.13102753,0.07137272,0.6530071
1740493967555,-0.0010652645,-0.068176925,0.6221144
1740493967559,-0.12676647,-0.18109496,0.5965481
1740493967565,-0.25353295,-0.32597092,0.608266
1740493967569,-0.39947417,-0.45593318,0.6359629
1740493967574,-0.51984906,-0.51771855,0.65513766
1740493967578,-0.61678815,-0.5390238,0.64768076
1740493967584,-0.7030745,-0.5699165,0.6221144
1740493967588,-0.79042625,-0.63383234,0.5944176
1740493967594,-0.8809737,-0.72011876,0.567786
1740493967599,-0.9672601,-0.7946873,0.5411543
1740493967604,-1.0524813,-0.8490158,0.52624065
1740493967609,-1.1313108,-0.86392945,0.51771855
1740493967615,-1.1888351,-0.8266452,0.51026165
1740493967618,-1.2303804,-0.74675035,0.49960902
1740493967624,-1.2612731,-0.6530071,0.47723848
1740493967628,-1.2815131,-0.55606806,0.4463458
1740493967633,-1.2697952,-0.43675843,0.4133226
1740493967638,-1.2218584,-0.3110572,0.38242993
1740493967643,-1.1430287,-0.2247708,0.34408042
1740493967648,-1.0652645,-0.20559604,0.294013
1740493967653,-0.98750013,-0.24074976,0.24394555
1740493967657,-0.90973586,-0.31318775,0.20559604
1740493967663,-0.8330368,-0.4133226,0.18216023
1740493967672,-0.7669904,-0.5305017,0.20133498
1740493967674,-0.6988135,-0.65513766,0.26205507
1740493967681,-0.6306366,-0.7819041,0.3110572
1740493967688,-0.57311225,-0.8905611,0.330232
1740493967688,-0.531567,-0.9672601,0.3334278
1740493967692,-0.50600064,-0.99708754,0.3334278
1740493967697,-0.49321744,-0.9853696,0.34301516
1740493967703,-0.48149952,-0.92997587,0.3536678
1740493967706,-0.45806372,-0.83942837,0.3653857
1740493967712,-0.4133226,-0.7318367,0.3685815
1740493967718,-0.34194988,-0.62104917,0.36325517
1740493967726,-0.28975195,-0.515588,0.35473305
1740493967727,-0.26631612,-0.4346279,0.3472762
1740493967732,-0.25353295,-0.3834952,0.33449304
1740493967736,-0.23116238,-0.34408042,0.314253
1740493967742,-0.21198763,-0.3121225,0.28336033
1740493967746,-0.2066613,-0.30786142,0.24394555
1740493967751,-0.22796659,-0.34194988,0.19387813
1740493967756,-0.28868666,-0.4101268,0.13848437
1740493967761,-0.39627838,-0.4889564,0.083090626
1740493967767,-0.5305017,-0.5571333,0.036218993
1740493967771,-0.66579026,-0.6061355,-0.008522116
1740493967776,-0.79255676,-0.644485,-0.051132694
1740493967781,-0.90014845,-0.6689861,-0.099069595
1740493967786,-0.98750013,-0.6668556,-0.1555286
1740493967791,-1.0524813,-0.6380934,-0.21944448
1740493967796,-1.0929613,-0.5954828,-0.28442562
1740493967801,-1.1121361,-0.52837116,-0.34408042
1740493967806,-1.1014835,-0.43782368,-0.386691
1740493967811,-1.067395,-0.3206446,-0.41545314
1740493967818,-1.0120013,-0.17576863,-0.4261058
1740493967822,-0.95128113,-0.015978966,-0.42290998
1740493967826,-0.8873653,0.15020229,-0.4079963
1740493967831,-0.82557994,0.30253512,-0.386691
1740493967836,-0.773382,0.42184472,-0.36432046
1740493967841,-0.73290193,0.5113269,-0.350472
1740493967846,-0.7041398,0.5773733,-0.34301516
1740493967851,-0.6764429,0.63702816,-0.34194988
1740493967855,-0.64768076,0.67218184,-0.34514567
1740493967861,-0.6178534,0.67324716,-0.34834146
1740493967866,-0.5837649,0.6348976,-0.34940675
1740493967870,-0.5486112,0.567786,-0.34194988
1740493967875,-0.50813115,0.49321744,-0.32490566
1740493967880,-0.46232477,0.42717105,-0.28229508
1740493967885,-0.4165184,0.3717773,-0.21624869
1740493967890,-0.38136467,0.31638354,-0.14807177
1740493967894,-0.3653857,0.2727077,-0.08948222
1740493967900,-0.37071204,0.24181503,-0.051132694
1740493967904,-0.39414784,0.22903186,-0.027696876
1740493967909,-0.43569317,0.24927188,-0.014913702
1740493967914,-0.49641323,0.30360037,0.0031957934
1740493967919,-0.56885123,0.38029942,0.033023197
1740493967924,-0.6487461,0.47297743,0.066046394
1740493967929,-0.7339672,0.55606806,0.101200126
1740493967934,-0.8213189,0.6125271,0.12783173
1740493967939,-0.89375687,0.6508766,0.13315806
1740493967944,-0.94275904,0.6849651,0.1107875
1740493967949,-0.9598033,0.721184,0.06178534
1740493967954,-0.93849796,0.7584683,-0.013848438
1740493967959,-0.88203895,0.8159926,-0.10333065
1740493967964,-0.7978831,0.8831042,-0.18429075
1740493967969,-0.6945524,0.9257148,-0.23542345
1740493967974,-0.58056915,0.92784536,-0.26418558
1740493967979,-0.46552056,0.8926916,-0.28549087
1740493967984,-0.350472,0.8362326,-0.31318775
1740493967989,-0.23329292,0.75633776,-0.35792887
1740493967994,-0.113983296,0.65513766,-0.41758367
1740493967999,0.0031957934,0.5496765,-0.47830373
1740493968003,0.10865697,0.4495416,-0.5251754
1740493968008,0.1949434,0.3568636,-0.5571333
1740493968013,0.2545982,0.26738137,-0.57311225
1740493968018,0.2695119,0.2034655,-0.57098174
1740493968024,0.19707392,0.22370553,-0.54435015
1740493968028,0.09374327,0.22690132,-0.5209143
1740493968034,0.023435818,0.22690132,-0.49747851
1740493968038,-0.022370555,0.23009712,-0.48149952
1740493968043,-0.022370555,0.23009712,-0.48149952
1740493968048,-0.07350325,0.22370553,-0.47723848
1740493968053,-0.13954964,0.21837921,-0.4878911
1740493968058,-0.2066613,0.20985709,-0.5070659
1740493968063,-0.25885928,0.20772657,-0.5305017
1740493968068,-0.29614353,0.21837921,-0.5581986
1740493968073,-0.32490566,0.23648871,-0.58696073
1740493968078,-0.35473305,0.25672874,-0.62531024
1740493968083,-0.38456047,0.27483824,-0.65726817
1740493968087,-0.41225734,0.29188246,-0.68389976
1740493968092,-0.43036684,0.30999196,-0.6988135
1740493968097,-0.42717105,0.3291667,-0.7094661
1740493968102,-0.4016047,0.34940675,-0.721184
1740493968107,-0.34940675,0.36432046,-0.7339672
1740493968112,-0.2759035,0.3653857,-0.74675035
1740493968118,-0.1949434,0.3536678,-0.75101143
1740493968122,-0.111852765,0.3291667,-0.7414241
1740493968127,-0.033023197,0.30040458,-0.71479243
1740493968132,0.03089267,0.2695119,-0.67324716
1740493968137,0.080960095,0.24714136,-0.624245
1740493968142,0.10865697,0.2396845,-0.58269966
1740493968147,0.12357068,0.20772657,-0.5496765
1740493968152,0.12676647,0.15339808,-0.5230448
1740493968156,0.12783173,0.099069595,-0.49960902
1740493968161,0.12357068,0.054328486,-0.4825648
1740493968166,0.11611383,0.029827405,-0.48149952
1740493968177,0.10226539,0.05219796,-0.49215218
1740493968178,0.08522116,0.112918034,-0.5187838
1740493968187,0.07563378,0.18855181,-0.5539375
1740493968188,0.08841695,0.27164245,-0.59122175
1740493968191,0.12357068,0.34621096,-0.62744075
1740493968196,0.17470337,0.39734364,-0.66152924
1740493968201,0.24181503,0.4079963,-0.69668293
1740493968206,0.31638354,0.38562572,-0.73822826
1740493968210,0.39627838,0.3568636,-0.79042625
1740493968216,0.47830373,0.33449304,-0.850081
1740493968231,0.55287224,0.3291667,-0.91612744
1740493968232,0.6199839,0.33129725,-0.98430437
1740493968233,0.6711166,0.3270362,-1.0535465
1740493968247,0.6956177,0.3121225,-1.1185277
1740493968248,0.6956177,0.30146983,-1.1771172
1740493968248,0.6668556,0.29507825,-1.2218584
1740493968282,0.60720074,0.2972088,-1.2399678
1740493968282,0.51771855,0.2876214,-1.2293152
1740493968283,0.39734364,0.25246766,-1.1941614
1740493968283,0.25246766,0.18748654,-1.1419635
1740493968289,0.09267801,0.080960095,-1.0737866
1740493968289,-0.0777643,-0.05539375,-0.99282646
1740493968289,-0.25033715,-0.1917476,-0.9054748
1740493968290,-0.4101268,-0.3110572,-0.8159926
1740493968290,-0.55074173,-0.4079963,-0.7286409
1740493968325,-0.66579026,-0.48043427,-0.6508766
1740493968326,-0.753142,-0.52837116,-0.5837649
1740493968326,-0.81066626,-0.53263223,-0.52411014
1740493968326,-0.8383631,-0.47191215,-0.46552056
1740493968326,-0.83516735,-0.38456047,-0.40906155
1740493968327,-0.809601,-0.3174488,-0.36325517
1740493968327,-0.7680557,-0.27803403,-0.33129725
1740493968330,-0.7052051,-0.23116238,-0.3110572
1740493968336,-0.61891866,-0.15339808,-0.3089267
1740493968343,-0.5091964,-0.046871636,-0.32277513
1740493968346,-0.3888215,0.04474111,-0.34940675
1740493968349,-0.2727077,0.10439592,-0.38242993
1740493968355,-0.16937704,0.128897,-0.4133226
1740493968358,-0.0777643,0.13315806,-0.43356264
1740493968363,0.0063915867,0.13315806,-0.4314321
1740493968370,0.07456851,0.15765914,-0.4165184
1740493968374,0.12676647,0.20559604,-0.39734364
1740493968378,0.15978967,0.25566345,-0.36964676
1740493968383,0.17576863,0.3057309,-0.330232
1740493968388,0.18109496,0.35153726,-0.27377295
1740493968393,0.1768339,0.38775626,-0.19920446
1740493968398,0.16937704,0.42397526,-0.1107875
1740493968406,0.1587244,0.4644553,-0.015978966
1740493968408,0.15020229,0.5091964,0.07563378
1740493968413,0.1470065,0.5486112,0.15978967
1740493968424,0.14913702,0.5795039,0.23435818
1740493968425,0.15446335,0.5997439,0.28868666
1740493968428,0.16192019,0.60933125,0.31851408
1740493968433,0.16724652,0.6103965,0.32597092
1740493968437,0.17044231,0.60080916,0.30999196
1740493968443,0.16724652,0.5816344,0.2790993
1740493968448,0.1555286,0.5539375,0.23648871
1740493968457,0.13954964,0.51771855,0.18748654
1740493968458,0.11824436,0.47191215,0.13635385
1740493968462,0.09161274,0.42397526,0.09374327
1740493968467,0.066046394,0.37816888,0.06391586
1740493968474,0.046871636,0.34301516,0.051132694
1740493968477,0.03834952,0.32384038,0.05965481
1740493968482,0.037284255,0.31638354,0.07882957
1740493968490,0.040480047,0.3206446,0.10972224
1740493968492,0.05006743,0.3323625,0.14807177
1740493968497,0.05965481,0.3536678,0.19600865
1740493968506,0.07456851,0.37710363,0.24927188
1740493968507,0.094808534,0.406931,0.30466563
1740493968512,0.11824436,0.43675843,0.3568636
1740493968517,0.14594123,0.46552056,0.40373522
1740493968522,0.17576863,0.48682585,0.44315
1740493968527,0.20240025,0.49641323,0.47510794
1740493968532,0.22690132,0.49534798,0.49428272
1740493968539,0.24714136,0.4857606,0.5028048
1740493968541,0.26525086,0.46019423,0.5187838
1740493968546,0.28336033,0.41971418,0.55287224
1740493968557,0.28975195,0.3930826,0.5763081
1740493968557,0.27696875,0.3717773,0.5752428
1740493968561,0.25033715,0.33768883,0.5571333
1740493968566,0.21731395,0.28549087,0.5273059
1740493968574,0.18002969,0.23116238,0.49428272
1740493968576,0.14274544,0.18429075,0.45699844
1740493968581,0.10652645,0.15339808,0.41971418
1740493968591,0.07669904,0.13315806,0.38136467
1740493968591,0.05539375,0.12037488,0.350472
1740493968596,0.037284255,0.111852765,0.3334278
1740493968601,0.025566347,0.10972224,0.32277513
1740493968607,0.017044231,0.12144015,0.32277513
1740493968611,0.008522116,0.1438107,0.3323625
1740493968616,0.0053263223,0.17150758,0.3472762
1740493968625,0.0053263223,0.20559604,0.36218992
1740493968626,0.00958738,0.2396845,0.38029942
1740493968631,0.017044231,0.27377295,0.39734364
1740493968636,0.033023197,0.30146983,0.41545314
1740493968642,0.053263225,0.32597092,0.4346279
1740493968645,0.0777643,0.34621096,0.44847634
1740493968651,0.10013486,0.35899413,0.4612595
1740493968657,0.11611383,0.35579833,0.46552056
1740493968660,0.13102753,0.34514567,0.4676511
1740493968665,0.14274544,0.32597092,0.46978164
1740493968676,0.1470065,0.30360037,0.47191215
1740493968676,0.14807177,0.27803403,0.47297743
1740493968694,0.14061491,0.25246766,0.47510794
1740493968695,0.128897,0.22264028,0.479369
1740493968695,0.113983296,0.19281286,0.48469532
1740493968696,0.094808534,0.16831179,0.49215218
1740493968700,0.07456851,0.14807177,0.49747851
1740493968707,0.053263225,0.12783173,0.5028048
1740493968710,0.02876214,0.112918034,0.51026165
1740493968715,0.0053263223,0.10013486,0.51452273
1740493968723,-0.013848438,0.09054748,0.51984906
1740493968724,-0.029827405,0.08841695,0.52624065
1740493968730,-0.041545313,0.094808534,0.531567
1740493968734,-0.054328486,0.10013486,0.5390238
1740493968740,-0.066046394,0.10652645,0.551807
1740493968744,-0.07882957,0.11824436,0.5635249
1740493968750,-0.08735169,0.12250541,0.5773733
1740493968757,-0.08948222,0.1257012,0.58483016
1740493968760,-0.082025364,0.12783173,0.588026
1740493968764,-0.068176925,0.12783173,0.59122175
1740493968769,-0.054328486,0.12250541,0.5933523
1740493968780,-0.041545313,0.112918034,0.5901565
1740493968781,-0.03195793,0.096939065,0.58269966
1740493968784,-0.03089267,0.07669904,0.58056915
1740493968793,-0.039414786,0.053263225,0.5773733
1740493968794,-0.060720075,0.02876214,0.5795039
1740493968799,-0.08948222,-0.0010652645,0.58483016
1740493968807,-0.12357068,-0.03195793,0.59228706
1740493968809,-0.16405073,-0.06391586,0.60293967
1740493968813,-0.20453078,-0.098004326,0.6146576
1740493968818,-0.24820662,-0.13422333,0.62531024
1740493968825,-0.29188246,-0.17257284,0.6327671
1740493968828,-0.32597092,-0.21092236,0.6402239
1740493968833,-0.35260254,-0.24074976,0.6423545
1740493968838,-0.37071204,-0.26631612,0.6412892
1740493968843,-0.38562572,-0.28442562,0.6348976
1740493968848,-0.39414784,-0.29294774,0.62317973
1740493968853,-0.39627838,-0.29614353,0.6018744
1740493968858,-0.39840892,-0.29507825,0.57417756
1740493968862,-0.39627838,-0.2876214,0.5390238
1740493968868,-0.39095205,-0.2759035,0.5006743
1740493968873,-0.37923414,-0.257794,0.46339005
1740493968877,-0.36751625,-0.23861924,0.4282363
1740493968882,-0.350472,-0.21518342,0.39521313
1740493968888,-0.33129725,-0.18855181,0.3717773
1740493968892,-0.314253,-0.16937704,0.35579833
1740493968897,-0.29827404,-0.15446335,0.3472762
1740493968902,-0.28122982,-0.1470065,0.34621096
1740493968908,-0.25992453,-0.1470065,0.36005938
1740493968912,-0.23755397,-0.16298546,0.38029942
1740493968917,-0.21518342,-0.18961707,0.4133226
1740493968923,-0.18642128,-0.2247708,0.45380265
1740493968928,-0.15339808,-0.26738137,0.49534798
1740493968932,-0.11824436,-0.3153183,0.53795856
1740493968938,-0.08735169,-0.36645097,0.57417756
1740493968942,-0.060720075,-0.42077947,0.5997439
1740493968947,-0.04474111,-0.47617322,0.61572284
1740493968954,-0.043675844,-0.5294364,0.6178534
1740493968957,-0.05752428,-0.5773733,0.60293967
1740493968962,-0.09267801,-0.6146576,0.5784386
1740493968967,-0.15020229,-0.6423545,0.5496765
1740493968972,-0.22796659,-0.65194184,0.51984906
1740493968977,-0.32490566,-0.6498113,0.49215218
1740493968982,-0.43356264,-0.6359629,0.46552056
1740493968987,-0.5475459,-0.6146576,0.43782368
1740493968992,-0.664725,-0.5858955,0.40906155
1740493968997,-0.7755125,-0.5486112,0.37816888
1740493969001,-0.88203895,-0.5134575,0.34301516
1740493969007,-0.9800433,-0.4910869,0.3110572
1740493969011,-1.067395,-0.47510794,0.28016454
1740493969016,-1.1345067,-0.45912898,0.2514024
1740493969022,-1.180313,-0.44741106,0.22796659
1740493969035,-1.2026836,-0.43356264,0.2066613
1740493969036,-1.1973573,-0.42184472,0.18642128
1740493969041,-1.164334,-0.406931,0.165116
1740493969042,-1.1068097,-0.38775626,0.14594123
1740493969046,-1.0258497,-0.36645097,0.128897
1740493969051,-0.9214538,-0.34834146,0.12037488
1740493969056,-0.8064052,-0.330232,0.11504856
1740493969061,-0.67963874,-0.3121225,0.1107875
1740493969066,-0.551807,-0.294013,0.10333065
1740493969071,-0.4261058,-0.27483824,0.0958738
1740493969076,-0.3057309,-0.25246766,0.08948222
1740493969081,-0.1917476,-0.22050974,0.084155895
1740493969087,-0.098004326,-0.18429075,0.07989483
1740493969092,-0.024501082,-0.14594123,0.07137272
1740493969096,0.026631612,-0.11504856,0.056459017
1740493969101,0.054328486,-0.0958738,0.03195793
1740493969106,0.05965481,-0.08948222,0.0
1740493969111,0.041545313,-0.09161274,-0.034088463
1740493969116,0.004261058,-0.09267801,-0.07243799
1740493969121,-0.05219796,-0.096939065,-0.111852765
1740493969126,-0.111852765,-0.10546118,-0.15659387
1740493969131,-0.17257284,-0.12037488,-0.20453078
1740493969135,-0.221575,-0.1438107,-0.25672874
1740493969140,-0.2514024,-0.1736381,-0.3153183
1740493969146,-0.26205507,-0.20240025,-0.37603834
1740493969150,-0.24927188,-0.23222765,-0.43782368
1740493969157,-0.21731395,-0.2609898,-0.49534798
1740493969160,-0.17257284,-0.294013,-0.5475459
1740493969165,-0.12144015,-0.3291667,-0.59228706
1740493969170,-0.068176925,-0.36325517,-0.624245
1740493969180,-0.008522116,-0.3834952,-0.64341974
1740493969184,0.049002163,-0.38775626,-0.65513766
1740493969187,0.10333065,-0.37390783,-0.6679208
1740493969189,0.15233281,-0.35579833,-0.6743124
1740493969194,0.20133498,-0.3355583,-0.67537767
1740493969199,0.24394555,-0.30253512,-0.6764429
1740493969205,0.28016454,-0.27057716,-0.6775082
1740493969211,0.30679616,-0.23861924,-0.67963874
1740493969214,0.32384038,-0.20453078,-0.6828345
1740493969220,0.32810146,-0.17470337,-0.6849651
1740493969225,0.31957933,-0.1438107,-0.68176925
1740493969229,0.30253512,-0.11824436,-0.6785734
1740493969234,0.2790993,-0.10013486,-0.67324716
1740493969239,0.24820662,-0.08628642,-0.6679208
1740493969244,0.21198763,-0.07882957,-0.6689861
1740493969249,0.17470337,-0.07882957,-0.6711166
1740493969254,0.14061491,-0.083090626,-0.6743124
1740493969258,0.11611383,-0.08735169,-0.6743124
1740493969270,0.094808534,-0.08948222,-0.67537767
1740493969271,0.083090626,-0.0958738,-0.6743124
1740493969279,0.083090626,-0.101200126,-0.6711166
1740493969280,0.09054748,-0.10439592,-0.6668556
1740493969284,0.10652645,-0.10226539,-0.6562029
1740493969288,0.12676647,-0.094808534,-0.6380934
1740493969293,0.15233281,-0.08628642,-0.61678815
1740493969298,0.18216023,-0.07243799,-0.5944176
1740493969303,0.2130529,-0.05539375,-0.5763081
1740493969307,0.24394555,-0.041545313,-0.5613944
1740493969312,0.2759035,-0.029827405,-0.55287224
1740493969317,0.30679616,-0.01917476,-0.54648066
1740493969327,0.330232,-0.0127831735,-0.5411543
1740493969328,0.34621096,-0.0053263223,-0.535828
1740493969332,0.350472,-0.0010652645,-0.5294364
1740493969337,0.34408042,0.0053263223,-0.52624065
1740493969342,0.330232,0.00958738,-0.52411014
1740493969347,0.30786142,0.0053263223,-0.5230448
1740493969352,0.27803403,0.0031957934,-0.5230448
1740493969357,0.24607609,0.002130529,-0.5230448
1740493969362,0.20559604,0.0,-0.5230448
1740493969366,0.16298546,-0.0053263223,-0.5294364
1740493969371,0.11930962,-0.0053263223,-0.531567
1740493969377,0.07989483,-0.004261058,-0.5336975
1740493969382,0.04474111,-0.0063915867,-0.53263223
1740493969386,0.0127831735,-0.007456851,-0.531567
1740493969391,-0.011717909,-0.015978966,-0.531567
1740493969396,-0.02876214,-0.018109497,-0.5305017
1740493969402,-0.037284255,-0.01917476,-0.531567
1740493969408,-0.03834952,-0.014913702,-0.5336975
1740493969412,-0.036218993,-0.0031957934,-0.5400891
1740493969417,-0.033023197,0.007456851,-0.55074173
1740493969422,-0.03089267,0.013848438,-0.5603291
1740493969434,-0.026631612,0.018109497,-0.5699165
1740493969437,-0.01917476,0.02130529,-0.572047
1740493969438,-0.013848438,0.034088463,-0.56672066
1740493969444,-0.004261058,0.04580637,-0.5539375
1740493969447,0.0063915867,0.05965481,-0.5368933
1740493969452,0.017044231,0.07243799,-0.5187838
1740493969457,0.02876214,0.08841695,-0.50387007
1740493969462,0.037284255,0.10652645,-0.49428272
1740493969467,0.04580637,0.12463594,-0.48149952
1740493969472,0.05219796,0.14594123,-0.4676511
1740493969476,0.05539375,0.16937704,-0.45912898
1740493969482,0.05752428,0.18535602,-0.4527374
1740493969488,0.05965481,0.19068234,-0.4495416
1740493969491,0.05539375,0.18642128,-0.45060685
1740493969497,0.049002163,0.17789917,-0.45486793
1740493969503,0.039414786,0.17044231,-0.46232477
1740493969506,0.027696876,0.16618125,-0.46339005
1740493969512,0.0063915867,0.16298546,-0.46019423
1740493969516,-0.02130529,0.14913702,-0.45699844
1740493969522,-0.053263225,0.13102753,-0.45486793
1740493969525,-0.08628642,0.112918034,-0.4527374
1740493969531,-0.11717909,0.094808534,-0.45167214
1740493969537,-0.14594123,0.08841695,-0.45060685
1740493969541,-0.17257284,0.09374327,-0.45380265
1740493969546,-0.19600865,0.10546118,-0.46019423
1740493969550,-0.21837921,0.12144015,-0.47191215
1740493969555,-0.2396845,0.13209279,-0.48469532
1740493969561,-0.2609898,0.13848437,-0.49960902
1740493969568,-0.27696875,0.15233281,-0.5091964
1740493969569,-0.28549087,0.16937704,-0.5091964
1740493969575,-0.28549087,0.1949434,-0.50173956
1740493969580,-0.27803403,0.23116238,-0.4825648
1740493969585,-0.25992453,0.27803403,-0.45806372
1740493969590,-0.22796659,0.33129725,-0.42184472
1740493969595,-0.18535602,0.38456047,-0.37816888
1740493969600,-0.13102753,0.43888897,-0.3291667
1740493969604,-0.07243799,0.49002165,-0.2790993
1740493969609,-0.011717909,0.53263223,-0.23329292
1740493969614,0.049002163,0.5571333,-0.18961707
1740493969620,0.10865697,0.56672066,-0.15765914
1740493969625,0.16085494,0.5613944,-0.13209279
1740493969629,0.19920446,0.5496765,-0.112918034
1740493969634,0.21837921,0.52837116,-0.099069595
1740493969639,0.21731395,0.49854377,-0.08628642
1740493969644,0.1949434,0.45912898,-0.07563378
1740493969649,0.15020229,0.4101268,-0.06498113
1740493969654,0.0958738,0.35153726,-0.060720075
1740493969660,0.02876214,0.2876214,-0.06711166
1740493969664,-0.049002163,0.22903186,-0.08522116
1740493969669,-0.128897,0.17470337,-0.111852765
1740493969675,-0.21092236,0.13315806,-0.14487597
1740493969682,-0.29294774,0.10546118,-0.18429075
1740493969683,-0.36964676,0.09054748,-0.221575
1740493969689,-0.43782368,0.08735169,-0.25353295
1740493969696,-0.49428272,0.10226539,-0.28122982
1740493969698,-0.5336975,0.13315806,-0.30360037
1740493969705,-0.55074173,0.18216023,-0.3174488
1740493969709,-0.5454154,0.2428803,-0.31851408
1740493969713,-0.51452273,0.314253,-0.3089267
1740493969718,-0.46658584,0.38775626,-0.28549087
1740493969724,-0.40266997,0.45380265,-0.24820662
1740493969728,-0.33129725,0.5113269,-0.19707392
1740493969734,-0.24927188,0.5603291,-0.13315806
1740493969740,-0.165116,0.5965481,-0.066046394
1740493969744,-0.07989483,0.6103965,0.0
1740493969749,0.002130529,0.60080916,0.05965481
1740493969754,0.0777643,0.5699165,0.111852765
1740493969759,0.14061491,0.5219796,0.15339808
1740493969763,0.18429075,0.46019423,0.18429075
1740493969768,0.20879184,0.39095205,0.2066613
1740493969773,0.21624869,0.32810146,0.21944448
1740493969778,0.20559604,0.2790993,0.22583607
1740493969784,0.18002969,0.24501082,0.22583607
1740493969788,0.14274544,0.22583607,0.22050974
1740493969793,0.10013486,0.22264028,0.20985709
1740493969797,0.054328486,0.23435818,0.1949434
1740493969802,0.0127831735,0.26312032,0.17576863
1740493969807,-0.025566347,0.30253512,0.15126756
1740493969812,-0.06178534,0.34514567,0.12463594
1740493969818,-0.06178534,0.34514567,0.12463594
1740493969823,-0.09374327,0.38562572,0.098004326
1740493969827,-0.1257012,0.41864893,0.07669904
1740493969832,-0.15339808,0.43888897,0.060720075
1740493969837,-0.17257284,0.44741106,0.05006743
1740493969844,-0.18109496,0.44101948,0.043675844
1740493969849,-0.1768339,0.4250405,0.04474111
1740493969852,-0.16085494,0.4016047,0.0479369
1740493969858,-0.13635385,0.3717773,0.056459017
1740493969862,-0.10226539,0.33662358,0.06498113
1740493969867,-0.06178534,0.29827404,0.07350325
1740493969872,-0.018109497,0.26418558,0.083090626
1740493969877,0.025566347,0.23648871,0.09054748
1740493969882,0.06391586,0.21837921,0.098004326
1740493969887,0.094808534,0.21198763,0.10439592
1740493969892,0.1107875,0.2066613,0.10865697
1740493969897,0.11611383,0.2066613,0.1107875
1740493969902,0.10759171,0.20559604,0.112918034
1740493969906,0.09054748,0.2066613,0.112918034
1740493969914,0.06711166,0.20985709,0.112918034
1740493969917,0.036218993,0.20772657,0.111852765
1740493969921,0.0010652645,0.19920446,0.10652645
1740493969928,-0.040480047,0.18322548,0.099069595
1740493969932,-0.080960095,0.16405073,0.09267801
1740493969936,-0.12144015,0.14594123,0.09161274
1740493969941,-0.15765914,0.12783173,0.09267801
1740493969946,-0.18961707,0.113983296,0.096939065
1740493969951,-0.21411815,0.10439592,0.10439592
1740493969956,-0.23116238,0.09374327,0.11504856
1740493969961,-0.24394555,0.09054748,0.1257012
1740493969966,-0.24820662,0.083090626,0.13954964
1740493969971,-0.24607609,0.0777643,0.15233281
1740493969976,-0.23222765,0.07563378,0.16298546
1740493969983,-0.20453078,0.07669904,0.17257284
1740493969986,-0.17044231,0.07989483,0.18002969
1740493969991,-0.128897,0.08735169,0.18109496
1740493969996,-0.080960095,0.0958738,0.18429075
1740493970001,-0.029827405,0.10546118,0.18429075
1740493970005,0.02130529,0.111852765,0.18429075
1740493970012,0.07137272,0.113983296,0.18535602
1740493970015,0.11824436,0.11504856,0.18748654
1740493970020,0.1587244,0.11717909,0.19068234
1740493970025,0.1917476,0.11611383,0.19707392
1740493970030,0.21731395,0.112918034,0.20559604
1740493970036,0.23329292,0.10652645,0.21198763
1740493970040,0.23861924,0.101200126,0.21944448
1740493970045,0.23648871,0.09054748,0.22796659
1740493970050,0.22370553,0.07350325,0.23542345
1740493970057,0.2066613,0.053263225,0.23542345
1740493970061,0.18535602,0.026631612,0.23648871
1740493970064,0.1587244,0.0010652645,0.23542345
1740493970071,0.13315806,-0.02130529,0.24074976
1740493970075,0.10759171,-0.040480047,0.24394555
1740493970080,0.084155895,-0.056459017,0.24714136
1740493970084,0.06498113,-0.066046394,0.24820662
1740493970091,0.05219796,-0.07882957,0.24394555
1740493970096,0.036218993,-0.11824436,0.21411815
1740493970100,0.0127831735,-0.19707392,0.15446335
1740493970105,0.0031957934,-0.25992453,0.10972224
1740493970111,0.023435818,-0.24394555,0.101200126
1740493970114,0.0628506,-0.1736381,0.1257012
1740493970121,0.10013486,-0.112918034,0.16618125
1740493970126,0.13209279,-0.094808534,0.19600865
1740493970129,0.15765914,-0.113983296,0.20453078
1740493970135,0.17789917,-0.13741912,0.19068234
1740493970140,0.19068234,-0.14168017,0.16831179
1740493970144,0.19920446,-0.13954964,0.14913702
1740493970149,0.20559604,-0.13528858,0.13954964
1740493970156,0.2066613,-0.13315806,0.14061491
1740493970159,0.20453078,-0.12996227,0.14594123
1740493970163,0.19600865,-0.12676647,0.14913702
1740493970169,0.18109496,-0.12144015,0.14487597
1740493970174,0.16298546,-0.12676647,0.13848437
1740493970184,0.13635385,-0.14061491,0.12996227
1740493970185,0.10546118,-0.15765914,0.12037488
1740493970201,0.07137272,-0.17044231,0.113983296
1740493970202,0.033023197,-0.1768339,0.10546118
1740493970203,-0.0031957934,-0.17896444,0.09054748
1740493970204,-0.039414786,-0.18322548,0.06711166
1740493970207,-0.07350325,-0.18748654,0.036218993
1740493970213,-0.10439592,-0.19281286,0.0
1740493970219,-0.12676647,-0.19600865,-0.040480047
1740493970223,-0.14487597,-0.20240025,-0.084155895
1740493970229,-0.15339808,-0.21411815,-0.13315806
1740493970233,-0.15978967,-0.23116238,-0.18748654
1740493970238,-0.16937704,-0.25353295,-0.25353295
1740493970253,-0.18535602,-0.27803403,-0.3323625
1740493970253,-0.20772657,-0.28868666,-0.42290998
1740493970254,-0.23329292,-0.27377295,-0.51984906
1740493970267,-0.26631612,-0.22903186,-0.62317973
1740493970267,-0.3057309,-0.1587244,-0.72970617
1740493970267,-0.34621096,-0.07563378,-0.8362326
1740493970273,-0.3834952,0.00958738,-0.9289106
1740493970276,-0.41438788,0.082025364,-0.99069595
1740493970282,-0.43782368,0.13102753,-1.019458
1740493970287,-0.45593318,0.14274544,-1.0098706
1740493970292,-0.46658584,0.12676647,-0.958738
1740493970296,-0.47191215,0.08841695,-0.86179894
1740493970302,-0.4708469,0.029827405,-0.7222493
1740493970307,-0.45593318,-0.033023197,-0.5454154
1740493970314,-0.42717105,-0.10013486,-0.3472762
1740493970316,-0.37390783,-0.17257284,-0.12996227
1740493970322,-0.2972088,-0.25246766,0.08628642
1740493970327,-0.19813919,-0.34514567,0.29188246
1740493970331,-0.084155895,-0.43675843,0.47510794
1740493970336,0.05006743,-0.5187838,0.6221144
1740493970342,0.19920446,-0.588026,0.72437984
1740493970347,0.35579833,-0.64341974,0.7861652
1740493970351,0.50387007,-0.7041398,0.8149273
1740493970357,0.6199839,-0.7765778,0.81918836
1740493970367,0.6945524,-0.84581995,0.80747044
1740493970367,0.7190535,-0.9044095,0.7850999
1740493970372,0.69029135,-0.93849796,0.75420725
1740493970377,0.60933125,-0.94595486,0.7222493
1740493970381,0.4889564,-0.92784536,0.69668293
1740493970385,0.33768883,-0.8948221,0.67963874
1740493970392,0.15978967,-0.8564726,0.6593987
1740493970397,-0.027696876,-0.81918836,0.6317018
1740493970400,-0.21411815,-0.7797736,0.5944176
1740493970406,-0.38029942,-0.7254451,0.5496765
1740493970411,-0.5219796,-0.67537767,0.49747851
1740493970414,-0.6348976,-0.6412892,0.43888897
1740493970421,-0.7254451,-0.6306366,0.37603834
1740493970426,-0.79255676,-0.6402239,0.31851408
1740493970430,-0.83516735,-0.660464,0.26844665
1740493970435,-0.85753787,-0.6828345,0.23222765
1740493970441,-0.85966843,-0.7041398,0.21518342
1740493970445,-0.84155893,-0.72011876,0.21837921
1740493970452,-0.80107886,-0.73290193,0.24074976
1740493970455,-0.737163,-0.73290193,0.27803403
1740493970461,-0.6487461,-0.71798825,0.32810146
1740493970466,-0.53795856,-0.6860303,0.3888215
1740493970470,-0.40906155,-0.6359629,0.45060685
1740493970475,-0.26844665,-0.56245965,0.5113269
1740493970480,-0.11824436,-0.47404268,0.5699165
1740493970484,0.026631612,-0.3749731,0.62104917
1740493970490,0.1587244,-0.27696875,0.664725
1740493970495,0.2727077,-0.18429075,0.6988135
1740493970499,0.36751625,-0.10333065,0.7222493
1740493970504,0.44315,-0.034088463,0.7350325
1740493970509,0.49747851,0.020240024,0.74035877
1740493970514,0.5294364,0.054328486,0.7350325
1740493970519,0.5432849,0.070307456,0.72011876
1740493970525,0.5390238,0.0628506,0.69987875
1740493970530,0.5230448,0.036218993,0.67005134
1740493970534,0.49428272,-0.0031957934,0.6380934
1740493970539,0.46232477,-0.05539375,0.5997439
1740493970545,0.42717105,-0.12144015,0.5539375
1740493970549,0.3920173,-0.19813919,0.5028048
1740493970554,0.35792887,-0.28122982,0.4463458
1740493970559,0.3270362,-0.36432046,0.386691
1740493970565,0.29933932,-0.44528055,0.32810146
1740493970569,0.2759035,-0.51665324,0.27164245
1740493970574,0.2609898,-0.5699165,0.21837921
1740493970579,0.24927188,-0.59867865,0.16937704
1740493970584,0.24394555,-0.6040049,0.128897
1740493970589,0.24394555,-0.588026,0.094808534
1740493970594,0.24501082,-0.55074173,0.070307456
1740493970606,0.25033715,-0.49854377,0.049002163
1740493970607,0.2609898,-0.4346279,0.03195793
1740493970608,0.2759035,-0.36645097,0.018109497
1740493970618,0.29614353,-0.29827404,0.0053263223
1740493970619,0.3206446,-0.2396845,-0.0063915867
1740493970623,0.34940675,-0.18961707,-0.013848438
1740493970628,0.38242993,-0.14807177,-0.018109497
1740493970633,0.42077947,-0.11717909,-0.015978966
1740493970637,0.45699844,-0.09161274,-0.010652645
1740493970643,0.4910869,-0.0777643,0.0010652645
1740493970648,0.52624065,-0.068176925,0.018109497
1740493970652,0.5592638,-0.068176925,0.036218993
1740493970657,0.588026,-0.07350325,0.054328486
1740493970662,0.6178534,-0.083090626,0.066046394
1740493970667,0.63915867,-0.09374327,0.070307456
1740493970673,0.6583334,-0.10439592,0.06924219
1740493970678,0.6679208,-0.111852765,0.06178534
1740493970685,0.6668556,-0.12144015,0.051132694
1740493970692,0.65726817,-0.13102753,0.036218993
1740493970692,0.6327671,-0.13741912,0.01917476
1740493970697,0.6018744,-0.13741912,0.002130529
1740493970702,0.56885123,-0.13102753,-0.014913702
1740493970708,0.531567,-0.11611383,-0.03195793
1740493970711,0.49215218,-0.096939065,-0.05006743
1740493970716,0.45486793,-0.0777643,-0.06924219
1740493970721,0.41864893,-0.05752428,-0.08735169
1740493970726,0.3888215,-0.041545313,-0.10546118
1740493970733,0.3653857,-0.026631612,-0.12250541
1740493970736,0.34834146,-0.011717909,-0.13635385
1740493970741,0.33768883,0.0063915867,-0.14274544
1740493970746,0.3323625,0.02876214,-0.14168017
1740493970750,0.33129725,0.049002163,-0.13635385
1740493970756,0.3323625,0.06924219,-0.1257012
1740493970761,0.33768883,0.08628642,-0.111852765
1740493970768,0.34408042,0.09267801,-0.09374327
1740493970771,0.35260254,0.09054748,-0.07243799
1740493970776,0.36112466,0.084155895,-0.046871636
1740493970781,0.36964676,0.07350325,-0.020240024
1740493970787,0.38136467,0.0628506,0.004261058
1740493970790,0.39414784,0.053263225,0.022370555
1740493970796,0.4048005,0.04474111,0.036218993
1740493970800,0.4111921,0.041545313,0.046871636
1740493970807,0.41545314,0.037284255,0.058589544
1740493970810,0.4111921,0.03089267,0.070307456
1740493970816,0.40053943,0.023435818,0.083090626
1740493970823,0.386691,0.018109497,0.098004326
1740493970825,0.36645097,0.0127831735,0.10972224
1740493970830,0.34301516,0.00958738,0.12144015
1740493970835,0.3174488,0.013848438,0.12783173
1740493970840,0.29507825,0.018109497,0.12463594
1740493970845,0.2759035,0.025566347,0.11717909
1740493970850,0.25672874,0.034088463,0.10546118
1740493970855,0.24074976,0.04474111,0.096939065
1740493970860,0.22583607,0.05965481,0.09374327
1740493970865,0.2130529,0.07350325,0.0958738
1740493970870,0.19920446,0.08948222,0.10226539
1740493970874,0.19068234,0.10333065,0.1107875
1740493970880,0.18216023,0.11504856,0.12676647
1740493970885,0.17470337,0.13102753,0.14061491
1740493970890,0.1736381,0.13954964,0.15233281
1740493970895,0.17896444,0.13848437,0.16724652
1740493970900,0.18961707,0.13422333,0.18961707
1740493970905,0.20026971,0.12676647,0.22264028
1740493970910,0.21837921,0.13422333,0.24927188
1740493970915,0.24714136,0.14168017,0.2695119
1740493970920,0.2790993,0.13528858,0.28442562
1740493970926,0.3110572,0.11930962,0.30146983
1740493970930,0.33662358,0.098004326,0.32277513
1740493970935,0.3536678,0.08841695,0.3387541
1740493970940,0.36645097,0.08628642,0.34194988
1740493970945,0.37390783,0.080960095,0.33662358
1740493970949,0.37284255,0.07243799,0.32490566
1740493970955,0.36218992,0.06711166,0.3174488
1740493970959,0.34194988,0.06498113,0.30786142
1740493970965,0.314253,0.07350325,0.30146983
1740493970969,0.28122982,0.09267801,0.29507825
1740493970974,0.24181503,0.112918034,0.28655612
1740493970981,0.20559604,0.13954964,0.28122982
1740493970994,0.17257284,0.16724652,0.27803403
1740493970995,0.1470065,0.19920446,0.27483824
1740493970995,0.128897,0.23222765,0.28655612
1740493971001,0.112918034,0.27057716,0.30360037
1740493971003,0.10972224,0.30360037,0.31318775
1740493971008,0.113983296,0.3270362,0.3206446
1740493971013,0.12037488,0.34301516,0.3323625
1740493971018,0.12144015,0.34194988,0.36005938
1740493971023,0.12037488,0.3355583,0.38775626
1740493971028,0.12357068,0.3206446,0.4048005
1740493971033,0.13209279,0.29188246,0.41758367
1740493971037,0.14061491,0.24714136,0.43036684
1740493971043,0.15339808,0.19281286,0.4463458
1740493971047,0.16085494,0.13315806,0.46552056
1740493971053,0.17044231,0.080960095,0.48149952
1740493971060,0.18002969,0.041545313,0.49002165
1740493971062,0.18642128,0.015978966,0.49002165
1740493971067,0.1949434,0.0031957934,0.4825648
1740493971072,0.20133498,0.0053263223,0.46871635
1740493971078,0.20453078,0.029827405,0.45060685
1740493971082,0.20453078,0.06711166,0.4250405
1740493971087,0.20240025,0.11930962,0.39947417
1740493971092,0.19707392,0.18109496,0.37071204
1740493971097,0.18961707,0.2428803,0.34301516
1740493971102,0.18216023,0.30253512,0.314253
1740493971106,0.17789917,0.35473305,0.28868666
1740493971111,0.17470337,0.40053943,0.26631612
1740493971116,0.16724652,0.44208476,0.25566345
1740493971121,0.15978967,0.47723848,0.23542345
1740493971126,0.15659387,0.49428272,0.20985709
1740493971131,0.15339808,0.49215218,0.18642128
1740493971136,0.14913702,0.47297743,0.17257284
1740493971141,0.13635385,0.43675843,0.18002969
1740493971146,0.12463594,0.39947417,0.18322548
1740493971151,0.12037488,0.35579833,0.18748654
1740493971156,0.12037488,0.3089267,0.19068234
1740493971161,0.12996227,0.25246766,0.2034655
1740493971166,0.14594123,0.20453078,0.2247708
1740493971171,0.16724652,0.165116,0.24820662
1740493971176,0.19600865,0.14061491,0.2727077
1740493971181,0.22690132,0.12783173,0.29507825
1740493971190,0.25672874,0.12037488,0.3153183
1740493971191,0.28016454,0.11717909,0.33768883
1740493971196,0.30040458,0.12676647,0.35153726
1740493971203,0.31638354,0.13954964,0.34834146
1740493971206,0.3323625,0.14913702,0.33768883
1740493971210,0.33768883,0.15339808,0.3206446
1740493971215,0.330232,0.15020229,0.30146983
1740493971221,0.314253,0.14594123,0.28122982
1740493971225,0.28336033,0.13848437,0.2609898
1740493971230,0.24501082,0.12996227,0.24074976
1740493971235,0.19920446,0.11824436,0.21731395
1740493971240,0.14807177,0.10439592,0.19387813
1740493971245,0.099069595,0.09161274,0.16937704
1740493971250,0.05219796,0.083090626,0.14594123
1740493971255,0.0063915867,0.07669904,0.12676647
1740493971260,-0.034088463,0.068176925,0.113983296
1740493971265,-0.070307456,0.05752428,0.10439592
1740493971270,-0.10439592,0.051132694,0.10439592
1740493971275,-0.13209279,0.0479369,0.10226539
1740493971280,-0.14594123,0.04474111,0.09054748
1740493971284,-0.14274544,0.043675844,0.070307456
1740493971289,-0.12783173,0.043675844,0.05219796
1740493971294,-0.10759171,0.046871636,0.039414786
1740493971300,-0.08735169,0.05219796,0.029827405
1740493971304,-0.07669904,0.05539375,0.037284255
1740493971309,-0.07350325,0.068176925,0.041545313
1740493971314,-0.06498113,0.082025364,0.036218993
1740493971319,-0.051132694,0.09374327,0.029827405
1740493971325,-0.037284255,0.10333065,0.027696876
1740493971329,-0.022370555,0.112918034,0.027696876
1740493971335,-0.010652645,0.12463594,0.029827405
1740493971339,-0.0010652645,0.13635385,0.035153728
1740493971344,0.004261058,0.1438107,0.041545313
1740493971349,0.0063915867,0.13954964,0.051132694
1740493971354,0.0031957934,0.128897,0.0628506
1740493971359,-0.002130529,0.112918034,0.0777643
1740493971363,-0.010652645,0.096939065,0.094808534
1740493971368,-0.026631612,0.083090626,0.10972224
1740493971373,-0.046871636,0.07137272,0.11504856
1740493971379,-0.06924219,0.05539375,0.11824436
1740493971384,-0.08841695,0.040480047,0.11930962
1740493971388,-0.10226539,0.029827405,0.11930962
1740493971393,-0.112918034,0.01917476,0.12144015
1740493971398,-0.12037488,0.018109497,0.12357068
1740493971404,-0.12357068,0.018109497,0.12783173
1740493971408,-0.11930962,0.018109497,0.13422333
1740493971413,-0.10972224,0.015978966,0.13848437
1740493971418,-0.09267801,0.015978966,0.14274544
1740493971424,-0.070307456,0.013848438,0.1438107
1740493971428,-0.04580637,0.007456851,0.14487597
1740493971434,-0.022370555,-0.0010652645,0.14274544
1740493971438,-0.0031957934,-0.0063915867,0.14061491
1740493971443,0.008522116,-0.010652645,0.13741912
1740493971448,0.014913702,-0.010652645,0.13315806
1740493971453,0.014913702,-0.00958738,0.12676647
1740493971458,0.011717909,-0.00958738,0.12037488
1740493971463,0.0063915867,-0.0063915867,0.11717909
1740493971468,0.0,0.0010652645,0.112918034
1740493971473,-0.007456851,0.004261058,0.111852765
1740493971478,-0.014913702,0.008522116,0.10972224
1740493971484,-0.020240024,0.007456851,0.10759171
1740493971487,-0.02876214,0.007456851,0.10439592
1740493971493,-0.037284255,0.0031957934,0.10226539
1740493971498,-0.04580637,-0.0063915867,0.10013486
1740493971503,-0.05752428,-0.020240024,0.0958738
1740493971508,-0.070307456,-0.03089267,0.09054748
1740493971513,-0.083090626,-0.04261058,0.08628642
1740493971518,-0.09374327,-0.05006743,0.07989483
1740493971522,-0.10226539,-0.05219796,0.07563378
1740493971527,-0.10972224,-0.051132694,0.07350325
1740493971533,-0.111852765,-0.046871636,0.06924219
1740493971537,-0.111852765,-0.041545313,0.06391586
1740493971542,-0.1107875,-0.036218993,0.056459017
1740493971547,-0.10865697,-0.027696876,0.05006743
1740493971552,-0.10226539,-0.020240024,0.04580637
1740493971557,-0.094808534,-0.01917476,0.043675844
1740493971562,-0.094808534,-0.01917476,0.043675844
1740493971567,-0.08841695,-0.014913702,0.04580637
1740493971571,-0.080960095,-0.013848438,0.046871636
1740493971577,-0.07563378,-0.01917476,0.0479369
1740493971581,-0.07137272,-0.023435818,0.04580637
1740493971586,-0.06711166,-0.026631612,0.039414786
1740493971591,-0.06498113,-0.029827405,0.02876214
1740493971596,-0.06178534,-0.035153728,0.023435818
1740493971601,-0.05965481,-0.03834952,0.01917476
1740493971606,-0.060720075,-0.037284255,0.011717909
1740493971611,-0.066046394,-0.034088463,0.008522116
1740493971616,-0.07350325,-0.02876214,0.00958738
1740493971621,-0.080960095,-0.026631612,0.008522116
1740493971626,-0.08735169,-0.01917476,0.011717909
1740493971631,-0.09161274,-0.013848438,0.015978966
1740493971637,-0.09267801,-0.004261058,0.020240024
1740493971641,-0.09054748,0.0010652645,0.024501082
1740493971646,-0.08522116,0.0053263223,0.03089267
1740493971651,-0.0777643,0.00958738,0.037284255
1740493971656,-0.068176925,0.013848438,0.036218993
1740493971660,-0.05965481,0.017044231,0.034088463
1740493971665,-0.05752428,0.023435818,0.033023197
1740493971670,-0.056459017,0.027696876,0.029827405
1740493971677,-0.05752428,0.033023197,0.02876214
1740493971680,-0.05965481,0.035153728,0.027696876
1740493971685,-0.06498113,0.035153728,0.02876214
1740493971691,-0.06924219,0.027696876,0.035153728
1740493971695,-0.07137272,0.022370555,0.040480047
1740493971704,-0.07456851,0.02130529,0.041545313
1740493971706,-0.0777643,0.01917476,0.039414786
1740493971710,-0.0777643,0.015978966,0.036218993
1740493971715,-0.0777643,0.014913702,0.03195793
1740493971724,-0.0777643,0.013848438,0.023435818
1740493971725,-0.07563378,0.00958738,0.013848438
1740493971730,-0.07669904,0.0063915867,0.0031957934
1740493971735,-0.0777643,0.0031957934,-0.008522116
1740493971740,-0.080960095,0.0,-0.01917476
1740493971745,-0.08522116,-0.0010652645,-0.029827405
1740493971749,-0.09054748,0.0,-0.037284255
1740493971755,-0.096939065,0.004261058,-0.04261058
1740493971759,-0.101200126,0.0063915867,-0.04474111
1740493971764,-0.10439592,0.007456851,-0.046871636
1740493971769,-0.10439592,0.004261058,-0.04580637
1740493971775,-0.10226539,0.004261058,-0.043675844
1740493971779,-0.099069595,0.0063915867,-0.039414786
1740493971785,-0.099069595,0.00958738,-0.033023197
1740493971790,-0.096939065,0.010652645,-0.025566347
1740493971794,-0.09374327,0.014913702,-0.020240024
1740493971799,-0.09054748,0.022370555,-0.014913702
1740493971805,-0.08948222,0.03834952,-0.0127831735
1740493971809,-0.08735169,0.060720075,-0.013848438
1740493971818,-0.08948222,0.09054748,-0.018109497
1740493971820,-0.09267801,0.128897,-0.023435818
1740493971824,-0.08948222,0.17150758,-0.029827405
1740493971828,-0.07989483,0.2066613,-0.040480047
1740493971834,-0.056459017,0.23755397,-0.049002163
1740493971838,-0.026631612,0.25992453,-0.04474111
1740493971842,0.0063915867,0.27696875,-0.033023197
1740493971848,0.041545313,0.2876214,-0.024501082
1740493971853,0.07243799,0.28442562,-0.011717909
1740493971857,0.08522116,0.26844665,0.00958738
1740493971862,0.07989483,0.23116238,0.036218993
1740493971867,0.068176925,0.12676647,0.05965481
1740493971873,0.041545313,0.0053263223,0.07563378
1740493971882,-0.014913702,-0.11611383,0.08628642
1740493971882,-0.09161274,-0.21944448,0.08841695
1740493971887,-0.15765914,-0.26738137,0.09161274
1740493971892,-0.2066613,-0.2514024,0.09374327
1740493971897,-0.24074976,-0.1949434,0.08948222
1740493971902,-0.26418558,-0.12357068,0.07350325
1740493971907,-0.2727077,-0.05752428,0.04261058
1740493971912,-0.26525086,-0.013848438,0.0031957934
1740493971916,-0.24927188,0.0010652645,-0.035153728
1740493971921,-0.23329292,-0.008522116,-0.06711166
1740493971926,-0.21837921,-0.037284255,-0.08628642
1740493971932,-0.20559604,-0.07989483,-0.09374327
1740493971936,-0.20453078,-0.13848437,-0.09374327
1740493971941,-0.20559604,-0.20559604,-0.08841695
1740493971946,-0.2066613,-0.27057716,-0.07989483
1740493971951,-0.20559604,-0.32490566,-0.07669904
